,time,id,x,y,z,velocity,angle of motion,facing angle
0,1352853188.708,9315400,39830,-22779,1704.245,823.082,-0.499,-0.708
3,1352853188.7419999,9315400,39848,-22802,1704.9470000000001,903.93,-0.648,-0.732
6,1352853188.777,9315400,39822,-22783,1706.243,785.811,-0.9620000000000001,-0.89
9,1352853188.813,9315400,39815,-22788,1706.475,786.133,-0.9740000000000001,-0.961
12,1352853188.847,9315400,39791,-22729,1706.451,556.775,-0.648,-0.884
15,1352853188.882,9315400,39793,-22710,1706.078,532.8430000000001,-0.652,-0.861
18,1352853188.915,9315400,39802,-22716,1705.1870000000001,526.286,-0.701,-0.8390000000000001
21,1352853188.95,9315400,39805,-22714,1704.3039999999999,522.09,-0.672,-0.79
24,1352853188.983,9315400,39798,-22693,1703.987,447.795,-0.7490000000000001,-0.774
27,1352853189.017,9315400,39790,-22695,1704.118,439.755,-0.7559999999999999,-0.794
30,1352853189.051,9315400,39747,-22581,1709.395,226.71099999999998,2.8989999999999996,1.7590000000000001
33,1352853189.085,9315400,39743,-22541,1715.701,289.185,2.457,1.915
36,1352853189.119,9315400,39702,-22482,1728.6170000000002,427.36800000000005,2.19,2.0269999999999997
39,1352853189.152,9315400,39669,-22426,1752.736,560.8340000000001,2.095,1.9780000000000002
42,1352853189.185,9315400,39649,-22389,1754.503,592.784,2.053,2.042
45,1352853189.2189999,9315400,39617,-22351,1755.398,621.436,2.07,2.086
48,1352853189.255,9315400,39594,-22329,1751.672,663.52,2.1319999999999997,2.119
51,1352853189.288,9315400,39576,-22309,1747.44,697.6030000000001,2.187,2.166
54,1352853189.322,9315400,39557,-22299,1746.2060000000001,754.78,2.207,2.2159999999999997
57,1352853189.356,9315400,39545,-22317,1742.914,690.7769999999999,2.267,2.269
60,1352853189.394,9315400,39524,-22314,1737.674,654.627,2.4090000000000003,2.41
63,1352853189.428,9315400,39489,-22337,1731.1,612.309,2.557,2.559
66,1352853189.464,9315400,39454,-22354,1724.349,627.245,2.717,2.75
69,1352853189.4989998,9315400,39404,-22353,1720.654,713.5269999999999,2.673,2.7739999999999996
72,1352853189.536,9315400,39377,-22342,1717.7820000000002,747.7689999999999,2.594,2.714
75,1352853189.57,9315400,39337,-22297,1765.4820000000002,812.187,2.6319999999999997,2.65
78,1352853189.603,9315400,39299,-22247,1785.412,874.738,2.605,2.6180000000000003
81,1352853189.638,9315400,39301,-22268,1780.9170000000001,825.74,2.655,2.647
84,1352853189.672,9315400,39277,-22312,1774.12,811.8330000000001,2.792,2.782
87,1352853189.707,9315400,39257,-22281,1772.872,792.625,2.68,2.678
90,1352853189.7410002,9315400,39235,-22258,1770.139,801.012,2.659,2.69
93,1352853189.775,9315400,39211,-22245,1765.625,855.4169999999999,2.678,2.6719999999999997
96,1352853189.809,9315400,39213,-22238,1760.328,894.355,2.615,2.5789999999999997
99,1352853189.846,9315400,39185,-22210,1759.388,967.171,2.545,2.56
102,1352853189.882,9315400,39173,-22193,1757.5510000000002,954.1,2.488,2.495
105,1352853189.92,9315400,39155,-22180,1754.1529999999998,1027.109,2.503,2.523
108,1352853189.953,9315400,39144,-22181,1751.1270000000002,982.122,2.51,2.522
111,1352853189.987,9315400,39138,-22158,1764.771,964.919,2.431,2.509
114,1352853190.023,9315400,39124,-22134,1766.9389999999999,994.0189999999999,2.405,2.491
117,1352853190.059,9315400,39095,-22101,1766.6770000000001,1006.143,2.397,2.495
120,1352853190.093,9315400,39081,-22073,1766.4979999999998,1075.934,2.438,2.532
123,1352853190.129,9315400,39048,-22053,1766.4820000000002,1065.003,2.423,2.545
126,1352853190.165,9315400,39020,-22028,1766.4820000000002,1033.195,2.399,2.571
129,1352853190.199,9315400,39001,-22015,1766.0539999999999,1007.7260000000001,2.479,2.5869999999999997
132,1352853190.234,9315400,38989,-21998,1765.721,961.345,2.513,2.609
135,1352853190.2680001,9315400,38979,-21987,1765.4229999999998,917.857,2.575,2.5869999999999997
138,1352853190.301,9315400,38958,-21982,1765.389,921.684,2.555,2.576
141,1352853190.3339999,9315400,38951,-21979,1765.359,910.279,2.596,2.583
144,1352853190.37,9315400,38911,-21934,1830.7920000000001,894.393,2.577,2.593
147,1352853190.405,9315400,38890,-21893,1872.3139999999999,931.154,2.5180000000000002,2.628
150,1352853190.442,9315400,38867,-21886,1863.364,894.574,2.5269999999999997,2.585
153,1352853190.478,9315400,38854,-21873,1854.05,887.9069999999999,2.529,2.6069999999999998
156,1352853190.513,9315400,38835,-21854,1851.354,833.262,2.5540000000000003,2.588
159,1352853190.547,9315400,38825,-21832,1848.611,783.4810000000001,2.4859999999999998,2.5610000000000004
162,1352853190.58,9315400,38810,-21799,1847.382,802.29,2.444,2.509
165,1352853190.6139998,9315400,38797,-21781,1845.3120000000001,837.289,2.499,2.553
168,1352853190.649,9315400,38785,-21751,1838.297,947.4910000000001,2.504,2.509
171,1352853190.683,9315400,38771,-21727,1831.6979999999999,943.7869999999999,2.522,2.4930000000000003
174,1352853190.717,9315400,38749,-21711,1825.25,976.908,2.479,2.455
177,1352853190.7510002,9315400,38720,-21692,1819.6760000000002,924.7769999999999,2.435,2.436
180,1352853190.785,9315400,38697,-21651,1815.376,931.648,2.428,2.435
183,1352853190.824,9315400,38661,-21615,1812.454,1030.9080000000001,2.4130000000000003,2.386
186,1352853190.858,9315400,38640,-21589,1809.711,1082.372,2.3680000000000003,2.371
189,1352853190.894,9315400,38621,-21549,1805.533,1129.598,2.311,2.28
192,1352853190.928,9315400,38617,-21528,1802.0720000000001,1095.17,2.249,2.227
195,1352853190.964,9315400,38598,-21491,1834.388,1060.81,2.1919999999999997,2.199
198,1352853191.0,9315400,38594,-21465,1840.654,1038.326,2.185,2.173
201,1352853191.034,9315400,38584,-21449,1854.279,996.5360000000001,2.15,2.195
204,1352853191.068,9315400,38583,-21448,1857.013,988.7689999999999,2.14,2.19
207,1352853191.105,9315400,38545,-21415,1853.9389999999999,1055.557,2.146,2.1830000000000003
210,1352853191.138,9315400,38516,-21388,1850.884,1060.9260000000002,2.25,2.181
213,1352853191.173,9315400,38482,-21365,1843.898,1093.0639999999999,2.252,2.195
216,1352853191.208,9315400,38473,-21347,1837.256,1083.288,2.319,2.2159999999999997
219,1352853191.243,9315400,38449,-21316,1834.61,1184.353,2.298,2.2030000000000003
222,1352853191.276,9315400,38448,-21316,1832.3010000000002,1207.202,2.276,2.2319999999999998
225,1352853191.309,9315400,38418,-21296,1829.0839999999998,1216.5339999999999,2.248,2.229
228,1352853191.342,9315400,38393,-21279,1825.874,1223.525,2.263,2.237
231,1352853191.378,9315400,38207,-21221,1824.104,1357.851,2.6,2.41
234,1352853191.411,9315400,38175,-21192,1824.0539999999999,1333.165,2.5580000000000003,2.431
237,1352853191.445,9315400,38174,-21187,1818.9560000000001,1275.905,2.488,2.4419999999999997
240,1352853191.478,9315400,38197,-21195,1812.912,1393.648,2.391,2.375
243,1352853191.515,9315400,38182,-21168,1810.5520000000001,1430.6529999999998,2.335,2.347
246,1352853191.552,9315400,38162,-21137,1809.378,1473.8370000000002,2.342,2.363
249,1352853191.587,9315400,38139,-21110,1806.503,1394.0829999999999,2.316,2.374
252,1352853191.62,9315400,38114,-21075,1803.902,1470.184,2.367,2.375
255,1352853191.6560001,9315400,38078,-21053,1803.1570000000002,1486.691,2.376,2.415
258,1352853191.69,9315400,38034,-21007,1828.433,1475.0439999999999,2.411,2.428
261,1352853191.726,9315400,38020,-20982,1841.172,1442.915,2.369,2.417
264,1352853191.7610002,9315400,38001,-20970,1837.174,1362.445,2.468,2.459
267,1352853191.794,9315400,37994,-20957,1833.531,1328.07,2.41,2.439
270,1352853191.829,9315400,37984,-20927,1830.2089999999998,1376.671,2.401,2.396
273,1352853191.865,9315400,37961,-20888,1827.135,1362.471,2.323,2.3409999999999997
276,1352853191.899,9315400,37929,-20858,1822.9160000000002,1378.8110000000001,2.305,2.3080000000000003
279,1352853191.933,9315400,37894,-20853,1818.494,1292.877,2.2880000000000003,2.301
282,1352853191.966,9315400,37870,-20826,1829.0710000000001,1217.677,2.287,2.3
285,1352853191.9989998,9315400,37857,-20805,1830.2079999999999,1169.3210000000001,2.208,2.26
288,1352853192.033,9315400,37838,-20790,1828.346,1056.902,2.2430000000000003,2.295
291,1352853192.067,9315400,37827,-20767,1826.556,1004.915,2.2359999999999998,2.3169999999999997
294,1352853192.103,9315400,37807,-20752,1819.842,992.5210000000001,2.258,2.326
297,1352853192.137,9315400,37791,-20726,1813.5439999999999,1001.345,2.24,2.265
300,1352853192.174,9315400,37764,-20707,1839.7620000000002,1021.562,2.292,2.275
303,1352853192.208,9315400,37738,-20689,1844.0729999999999,1042.433,2.3209999999999997,2.289
306,1352853192.246,9315400,37702,-20673,1838.658,1038.474,2.298,2.2969999999999997
309,1352853192.282,9315400,37678,-20674,1833.34,1013.862,2.318,2.316
312,1352853192.318,9315400,37654,-20668,1828.099,985.202,2.326,2.377
315,1352853192.352,9315400,37629,-20648,1823.155,975.3939999999999,2.3609999999999998,2.405
318,1352853192.3860002,9315400,37607,-20634,1813.402,1014.201,2.3280000000000003,2.371
321,1352853192.421,9315400,37573,-20609,1811.0420000000001,993.1089999999999,2.2880000000000003,2.41
324,1352853192.456,9315400,37546,-20587,1808.925,969.9860000000001,2.353,2.356
327,1352853192.4910002,9315400,37523,-20571,1828.861,959.7819999999999,2.399,2.385
330,1352853192.526,9315400,37477,-20535,1833.185,1014.446,2.4090000000000003,2.387
333,1352853192.559,9315400,37440,-20520,1829.225,1006.301,2.451,2.434
336,1352853192.595,9315400,37409,-20507,1825.395,999.342,2.489,2.445
339,1352853192.631,9315400,37390,-20494,1823.35,1011.635,2.483,2.431
342,1352853192.664,9315400,37351,-20457,1821.422,1076.665,2.4459999999999997,2.469
345,1352853192.698,9315400,37316,-20426,1818.726,1007.3610000000001,2.384,2.428
348,1352853192.731,9315400,37293,-20402,1816.233,1028.46,2.373,2.381
351,1352853192.764,9315400,37267,-20381,1836.045,1064.379,2.333,2.37
354,1352853192.797,9315400,37269,-20378,1849.162,1092.807,2.346,2.401
357,1352853192.83,9315400,37247,-20363,1842.835,1100.846,2.397,2.427
360,1352853192.863,9315400,37235,-20361,1827.055,1056.469,2.4219999999999997,2.4619999999999997
363,1352853192.8960001,9315400,37197,-20331,1855.766,1114.528,2.375,2.456
366,1352853192.929,9315400,37167,-20290,1870.9589999999998,1107.259,2.301,2.404
369,1352853192.966,9315400,37120,-20249,1863.119,1136.222,2.2569999999999997,2.388
372,1352853193.0019999,9315400,37067,-20232,1853.2220000000002,1133.64,2.359,2.432
375,1352853193.036,9315400,37011,-20199,1839.1660000000002,1102.536,2.411,2.4730000000000003
378,1352853193.071,9315400,36983,-20181,1829.5970000000002,1075.899,2.412,2.475
381,1352853193.1039999,9315400,36964,-20161,1835.713,1073.235,2.478,2.48
384,1352853193.137,9315400,36964,-20154,1840.326,1027.236,2.416,2.438
387,1352853193.172,9315400,36923,-20147,1822.3239999999998,1002.105,2.443,2.481
390,1352853193.207,9315400,36906,-20147,1816.16,984.062,2.483,2.474
393,1352853193.2410002,9315400,36896,-20126,1877.719,947.1410000000001,2.458,2.407
396,1352853193.276,9315400,36783,-20073,1853.7979999999998,1150.453,2.48,2.447
399,1352853193.31,9315400,36728,-20044,1829.81,1276.318,2.463,2.47
402,1352853193.3439999,9315400,36670,-20009,1818.046,1425.4170000000001,2.471,2.504
405,1352853193.378,9315400,36629,-19979,1803.495,1418.83,2.4730000000000003,2.497
408,1352853193.413,9315400,36589,-19925,1791.348,1430.9560000000001,2.421,2.476
411,1352853193.447,9315400,36559,-19895,1787.4089999999999,1354.705,2.455,2.4459999999999997
414,1352853193.4819999,9315400,36534,-19879,1775.2079999999999,1311.2579999999998,2.483,2.459
417,1352853193.517,9315400,36504,-19868,1758.8429999999998,1267.213,2.452,2.479
420,1352853193.553,9315400,36467,-19851,1754.609,1278.266,2.548,2.516
423,1352853193.586,9315400,36478,-19853,1749.9620000000002,1175.212,2.544,2.553
426,1352853193.619,9315400,36458,-19855,1730.7910000000002,1108.763,2.5989999999999998,2.569
429,1352853193.655,9315400,36425,-19820,1726.477,1131.505,2.536,2.53
432,1352853193.689,9315400,36411,-19791,1723.233,1103.763,2.509,2.503
435,1352853193.722,9315400,36387,-19775,1718.307,1075.146,2.485,2.475
438,1352853193.757,9315400,36330,-19753,1711.8120000000001,1119.976,2.5540000000000003,2.509
441,1352853193.793,9315400,36292,-19744,1732.842,1180.463,2.5989999999999998,2.543
444,1352853193.826,9315400,36280,-19709,1744.641,1223.287,2.475,2.441
447,1352853193.859,9315400,36274,-19701,1743.295,1225.101,2.531,2.439
450,1352853193.895,9315400,36266,-19668,1743.004,1228.604,2.397,2.398
453,1352853193.931,9315400,36286,-19629,1739.875,1254.6019999999999,2.33,2.362
456,1352853193.966,9315400,36286,-19617,1734.2279999999998,1252.933,2.366,2.3609999999999998
459,1352853194.0,9315400,36210,-19621,1720.497,1195.0,2.474,2.4859999999999998
462,1352853194.035,9315400,36108,-19610,1699.4470000000001,1099.779,2.511,2.545
465,1352853194.074,9315400,36029,-19603,1691.862,1056.752,2.5839999999999996,2.592
468,1352853194.109,9315400,35952,-19589,1685.942,1116.578,2.674,2.658
471,1352853194.142,9315400,35892,-19562,1697.789,1167.213,2.653,2.6430000000000002
474,1352853194.179,9315400,35829,-19535,1689.506,1248.278,2.6839999999999997,2.614
477,1352853194.212,9315400,35795,-19506,1679.878,1232.188,2.6189999999999998,2.622
480,1352853194.247,9315400,35776,-19498,1670.297,1092.989,2.588,2.6430000000000002
483,1352853194.284,9315400,35722,-19484,1696.5410000000002,1072.712,2.592,2.635
486,1352853194.319,9315400,35660,-19463,1727.336,1178.609,2.638,2.638
489,1352853194.3569999,9315400,35608,-19436,1735.8270000000002,1288.343,2.6460000000000004,2.668
492,1352853194.392,9315400,35538,-19420,1728.862,1412.9920000000002,2.6289999999999996,2.67
495,1352853194.427,9315400,35502,-19406,1721.0839999999998,1398.618,2.577,2.668
498,1352853194.462,9315400,35446,-19369,1741.842,1465.4229999999998,2.55,2.676
501,1352853194.4989998,9315400,35397,-19332,1746.3829999999998,1455.681,2.565,2.662
504,1352853194.533,9315400,35366,-19316,1738.908,1421.152,2.612,2.702
507,1352853194.569,9315400,35346,-19306,1731.558,1379.0410000000002,2.6439999999999997,2.7319999999999998
510,1352853194.605,9315400,35314,-19298,1723.999,1367.986,2.6510000000000002,2.714
513,1352853194.638,9315400,35286,-19301,1717.43,1282.347,2.63,2.7119999999999997
517,1352853194.672,9315400,35251,-19294,1722.148,1301.399,2.637,2.725
521,1352853194.707,9315400,35220,-19285,1723.106,1257.316,2.662,2.69
525,1352853194.74,9315400,35201,-19267,1713.922,1157.913,2.5869999999999997,2.673
529,1352853194.775,9315400,35179,-19242,1708.1270000000002,1069.097,2.533,2.589
533,1352853194.81,9315400,35165,-19220,1702.5,1061.029,2.483,2.512
537,1352853194.8439999,9315400,35170,-19211,1695.6689999999999,926.155,2.465,2.485
541,1352853194.8769999,9315400,35147,-19196,1708.165,882.65,2.489,2.479
545,1352853194.91,9315400,35132,-19186,1714.251,794.047,2.492,2.506
549,1352853194.944,9315400,35116,-19159,1747.6370000000002,885.195,2.41,2.457
553,1352853194.98,9315400,35086,-19143,1740.281,820.57,2.436,2.503
557,1352853195.014,9315400,35051,-19130,1738.585,767.632,2.4459999999999997,2.5469999999999997
561,1352853195.049,9315400,35020,-19137,1737.944,771.079,2.464,2.57
565,1352853195.089,9315400,34982,-19125,1725.1729999999998,780.422,2.509,2.582
569,1352853195.125,9315400,34942,-19097,1724.895,843.579,2.492,2.608
573,1352853195.16,9315400,34904,-19087,1725.3339999999998,829.2819999999999,2.524,2.608
577,1352853195.194,9315400,34870,-19070,1737.3629999999998,812.586,2.5660000000000003,2.685
581,1352853195.227,9315400,34834,-19052,1747.2920000000001,843.3530000000001,2.608,2.697
585,1352853195.26,9315400,34796,-19037,1732.401,840.7510000000001,2.687,2.748
589,1352853195.295,9315400,34768,-19057,1718.254,822.512,2.7,2.799
593,1352853195.33,9315400,34730,-19048,1705.6770000000001,819.995,2.6719999999999997,2.7769999999999997
597,1352853195.3660002,9315400,34698,-19051,1693.509,793.172,2.657,2.783
601,1352853195.403,9315400,34625,-19063,1713.682,851.1089999999999,2.7060000000000004,2.847
605,1352853195.439,9315400,34586,-19054,1722.967,866.949,2.705,2.7880000000000003
609,1352853195.477,9315400,34559,-19046,1726.9360000000001,914.705,2.717,2.734
613,1352853195.513,9315400,34499,-19030,1728.4520000000002,966.584,2.6710000000000003,2.765
617,1352853195.549,9315400,34464,-19019,1728.632,961.955,2.6719999999999997,2.7760000000000002
621,1352853195.585,9315400,34386,-19004,1755.126,1064.402,2.738,2.785
625,1352853195.621,9315400,34327,-18981,1781.4520000000002,1092.3,2.737,2.76
629,1352853195.658,9315400,34284,-18943,1773.444,1130.97,2.676,2.752
633,1352853195.695,9315400,34244,-18920,1769.6729999999998,1168.003,2.65,2.7319999999999998
637,1352853195.731,9315400,34220,-18900,1757.52,1166.214,2.6489999999999996,2.727
641,1352853195.766,9315400,34178,-18883,1745.0729999999999,1179.75,2.7310000000000003,2.7760000000000002
645,1352853195.805,9315400,34130,-18879,1738.668,1191.902,2.7039999999999997,2.7960000000000003
649,1352853195.839,9315400,34090,-18883,1734.5739999999998,1109.692,2.7439999999999998,2.818
653,1352853195.8739998,9315400,34015,-18882,1745.44,1117.6789999999999,2.7910000000000004,2.8280000000000003
657,1352853195.909,9315400,33939,-18888,1752.104,1156.72,2.8739999999999997,2.897
661,1352853195.944,9315400,33886,-18889,1751.3229999999999,1188.519,2.907,2.908
665,1352853195.98,9315400,33828,-18882,1764.325,1235.594,2.948,2.957
669,1352853196.016,9315400,33784,-18872,1774.4189999999999,1248.596,2.8810000000000002,2.898
673,1352853196.051,9315400,33817,-18864,1756.192,1154.0739999999998,2.839,2.907
677,1352853196.086,9315400,33830,-18868,1736.4129999999998,1079.7169999999999,2.815,2.8160000000000003
681,1352853196.122,9315400,33773,-18867,1733.899,1154.393,2.787,2.784
685,1352853196.158,9315400,33745,-18862,1730.8029999999999,1149.229,2.775,2.8089999999999997
689,1352853196.194,9315400,33706,-18852,1733.7320000000002,1185.264,2.725,2.806
693,1352853196.228,9315400,33664,-18839,1736.122,1221.41,2.7260000000000004,2.83
697,1352853196.265,9315400,33628,-18813,1728.6129999999998,1312.8129999999999,2.6710000000000003,2.7689999999999997
701,1352853196.299,9315400,33603,-18797,1721.646,1390.215,2.665,2.753
705,1352853196.336,9315400,33553,-18758,1712.274,1407.149,2.594,2.7230000000000003
709,1352853196.37,9315400,33516,-18755,1711.0220000000002,1380.17,2.623,2.694
713,1352853196.405,9315400,33459,-18749,1712.89,1426.639,2.6839999999999997,2.715
717,1352853196.442,9315400,33413,-18740,1712.404,1408.547,2.7230000000000003,2.7060000000000004
721,1352853196.476,9315400,33374,-18719,1717.819,1408.999,2.7239999999999998,2.76
725,1352853196.515,9315400,33316,-18692,1721.411,1425.745,2.695,2.767
729,1352853196.55,9315400,33257,-18680,1727.7379999999998,1475.229,2.7230000000000003,2.82
733,1352853196.585,9315400,33186,-18675,1755.9370000000001,1482.899,2.745,2.781
737,1352853196.62,9315400,33158,-18674,1760.9389999999999,1406.5770000000002,2.7430000000000003,2.806
741,1352853196.654,9315400,33145,-18669,1746.608,1289.391,2.7560000000000002,2.812
745,1352853196.69,9315400,33107,-18646,1729.902,1245.626,2.7510000000000003,2.795
749,1352853196.726,9315400,33070,-18636,1727.531,1224.305,2.7560000000000002,2.798
754,1352853196.7610002,9315400,33043,-18628,1726.2320000000002,1173.448,2.739,2.783
759,1352853196.798,9315400,33013,-18610,1739.263,1110.5910000000001,2.77,2.773
764,1352853196.835,9315400,32992,-18596,1748.4920000000002,1023.745,2.742,2.733
769,1352853196.871,9315400,32966,-18592,1730.704,1004.321,2.698,2.722
774,1352853196.907,9315400,32912,-18578,1731.826,1077.587,2.636,2.678
779,1352853196.94,9315400,32865,-18569,1730.889,1106.797,2.592,2.675
784,1352853196.978,9315400,32821,-18536,1729.056,1171.046,2.5669999999999997,2.655
789,1352853197.013,9315400,32766,-18506,1736.287,1215.618,2.585,2.565
794,1352853197.05,9315400,32693,-18480,1730.537,1251.297,2.5660000000000003,2.5660000000000003
799,1352853197.087,9315400,32668,-18466,1724.754,1145.412,2.608,2.595
804,1352853197.1239998,9315400,32657,-18444,1759.67,1075.242,2.59,2.544
809,1352853197.161,9315400,32639,-18431,1781.721,957.207,2.56,2.5180000000000002
814,1352853197.196,9315400,32615,-18416,1795.1889999999999,932.8889999999999,2.501,2.505
819,1352853197.235,9315400,32569,-18405,1785.855,1010.953,2.6639999999999997,2.597
