,time,id,x,y,z,velocity,angle of motion,facing angle
9055,1352853281.152,9344100,7776,2418,1347.684,852.4010000000001,-1.176,0.0
9059,1352853281.188,9344100,7779,2418,1347.684,864.105,-1.189,2.292
9063,1352853281.223,9344100,7778,2404,1347.684,903.5939999999999,-1.3780000000000001,-1.9509999999999998
9067,1352853281.256,9344100,7753,2320,1340.6129999999998,972.855,-1.656,-1.9480000000000002
9071,1352853281.29,9344100,7733,2251,1329.487,1036.766,-1.754,-1.916
9075,1352853281.324,9344100,7705,2186,1324.145,1056.799,-1.839,-1.9509999999999998
9079,1352853281.36,9344100,7687,2123,1319.648,1110.932,-1.8980000000000001,-1.944
9083,1352853281.397,9344100,7695,2001,1380.359,1309.009,-1.824,-1.913
9087,1352853281.433,9344100,7671,1961,1375.761,1283.155,-1.9240000000000002,-1.9469999999999998
9091,1352853281.4689999,9344100,7664,1898,1379.105,1258.4160000000002,-1.892,-1.9480000000000002
9095,1352853281.505,9344100,7656,1831,1378.142,1303.161,-1.8659999999999999,-1.942
9099,1352853281.542,9344100,7641,1775,1377.549,1341.233,-1.903,-1.98
9103,1352853281.579,9344100,7668,1725,1380.414,1339.504,-1.797,-1.926
9107,1352853281.6139998,9344100,7674,1674,1381.289,1341.205,-1.742,-1.905
9111,1352853281.649,9344100,7674,1609,1383.192,1340.8970000000002,-1.785,-1.8880000000000001
9115,1352853281.684,9344100,7692,1550,1383.183,1368.366,-1.6769999999999998,-1.819
9119,1352853281.7189999,9344100,7702,1498,1400.027,1366.881,-1.641,-1.744
9123,1352853281.755,9344100,7732,1461,1414.7579999999998,1309.253,-1.5819999999999999,-1.65
9127,1352853281.7910001,9344100,7746,1435,1441.0020000000002,1314.973,-1.561,-1.64
9131,1352853281.828,9344100,7772,1404,1458.9470000000001,1385.254,-1.571,-1.604
9135,1352853281.8669999,9344100,7756,1310,1457.151,1398.56,-1.6130000000000002,-1.6480000000000001
9139,1352853281.903,9344100,7770,1271,1456.014,1364.6129999999998,-1.588,-1.631
9143,1352853281.937,9344100,7788,1241,1452.787,1299.365,-1.584,-1.5919999999999999
9147,1352853281.972,9344100,7777,1186,1450.825,1271.393,-1.601,-1.6230000000000002
9151,1352853282.0089998,9344100,7771,1140,1447.6589999999999,1247.178,-1.6280000000000001,-1.63
9155,1352853282.044,9344100,7781,1112,1447.3429999999998,1170.901,-1.569,-1.591
9159,1352853282.08,9344100,7805,1075,1446.487,1057.103,-1.4869999999999999,-1.5519999999999998
9163,1352853282.118,9344100,7809,1038,1484.622,1024.9769999999999,-1.466,-1.504
9167,1352853282.153,9344100,7817,938,1555.1170000000002,1060.803,-1.4180000000000001,-1.473
9171,1352853282.187,9344100,7837,913,1572.569,1064.633,-1.4040000000000001,-1.431
9175,1352853282.223,9344100,7858,892,1584.8470000000002,1071.197,-1.4069999999999998,-1.3940000000000001
9179,1352853282.2580001,9344100,7864,901,1580.4379999999999,1002.684,-1.41,-1.392
9183,1352853282.293,9344100,7856,890,1574.7079999999999,984.472,-1.396,-1.391
9187,1352853282.328,9344100,7864,821,1580.3210000000001,1082.938,-1.464,-1.435
9191,1352853282.3660002,9344100,7883,800,1578.141,1085.6989999999998,-1.334,-1.359
9195,1352853282.399,9344100,7903,772,1582.787,1100.732,-1.301,-1.327
9199,1352853282.434,9344100,7918,745,1582.464,1113.1,-1.273,-1.3
9203,1352853282.468,9344100,7932,724,1581.092,1092.904,-1.246,-1.31
9207,1352853282.503,9344100,7939,666,1582.4560000000001,1029.994,-1.344,-1.36
9211,1352853282.538,9344100,7965,633,1580.8570000000002,997.5210000000001,-1.32,-1.276
9215,1352853282.572,9344100,7962,607,1599.7079999999999,979.166,-1.324,-1.2770000000000001
9219,1352853282.608,9344100,7979,579,1611.624,1003.21,-1.314,-1.321
9223,1352853282.6430001,9344100,7980,539,1617.49,1027.76,-1.3230000000000002,-1.3430000000000002
9227,1352853282.68,9344100,7998,489,1618.757,1008.575,-1.3,-1.3319999999999999
9231,1352853282.717,9344100,8012,467,1607.757,980.28,-1.295,-1.29
9235,1352853282.753,9344100,8014,448,1597.8410000000001,917.279,-1.321,-1.3
9239,1352853282.788,9344100,8035,428,1593.915,830.42,-1.236,-1.294
9243,1352853282.829,9344100,8065,338,1605.101,852.1510000000001,-1.314,-1.2670000000000001
9247,1352853282.865,9344100,8060,269,1608.121,833.6189999999999,-1.306,-1.272
9251,1352853282.9,9344100,8075,203,1602.649,876.69,-1.365,-1.295
9255,1352853282.937,9344100,8107,135,1631.059,921.472,-1.295,-1.273
9259,1352853282.972,9344100,8128,80,1625.338,982.328,-1.3130000000000002,-1.228
9263,1352853283.0080001,9344100,8137,17,1619.957,1012.5310000000001,-1.297,-1.21
9267,1352853283.045,9344100,8179,-67,1675.431,1102.7730000000001,-1.209,-1.1340000000000001
9271,1352853283.079,9344100,8227,-163,1746.9270000000001,1167.167,-1.181,-1.1420000000000001
9275,1352853283.1169999,9344100,8246,-135,1727.1629999999998,991.5189999999999,-1.1059999999999999,-1.1340000000000001
9279,1352853283.154,9344100,8230,-49,1672.1779999999999,797.689,-1.042,-1.109
9283,1352853283.189,9344100,8271,-95,1670.0420000000001,771.263,-1.001,-1.074
9287,1352853283.225,9344100,8327,-199,1683.806,780.868,-1.067,-1.091
9291,1352853283.263,9344100,8362,-274,1695.3210000000001,785.1030000000001,-1.115,-1.159
9295,1352853283.298,9344100,8374,-347,1707.526,874.6,-1.317,-1.2009999999999998
9299,1352853283.333,9344100,8392,-401,1708.984,921.052,-1.3559999999999999,-1.213
9303,1352853283.369,9344100,8408,-402,1697.3629999999998,829.2139999999999,-1.252,-1.194
9307,1352853283.403,9344100,8409,-413,1686.3239999999998,814.466,-1.177,-1.195
9311,1352853283.436,9344100,8407,-443,1687.469,810.1419999999999,-1.1740000000000002,-1.188
9315,1352853283.47,9344100,8423,-471,1685.7839999999999,928.013,-1.18,-1.121
9319,1352853283.507,9344100,8550,-515,1675.601,1069.759,-0.8759999999999999,-0.875
9323,1352853283.546,9344100,8615,-540,1673.701,1128.974,-0.774,-0.853
9327,1352853283.582,9344100,8641,-587,1667.983,1156.507,-0.8759999999999999,-0.9079999999999999
9331,1352853283.6169999,9344100,8666,-614,1662.9,1127.383,-0.845,-0.9059999999999999
9335,1352853283.653,9344100,8686,-638,1650.98,1064.442,-0.866,-0.958
9339,1352853283.688,9344100,8688,-679,1641.513,923.893,-0.977,-1.077
9343,1352853283.724,9344100,8697,-719,1630.6629999999998,897.488,-1.074,-1.121
9347,1352853283.7589998,9344100,8718,-755,1617.953,879.632,-1.067,-1.1520000000000001
9351,1352853283.795,9344100,8730,-793,1606.767,866.063,-1.085,-1.161
9355,1352853283.83,9344100,8749,-829,1598.649,854.997,-1.0959999999999999,-1.182
9359,1352853283.8669999,9344100,8760,-855,1592.955,845.1489999999999,-1.081,-1.135
9363,1352853283.903,9344100,8870,-877,1589.04,944.6519999999999,-0.892,-1.004
9367,1352853283.94,9344100,8939,-896,1578.485,929.3810000000001,-0.754,-0.877
9371,1352853283.976,9344100,8951,-923,1571.0629999999999,1039.139,-0.815,-0.88
9375,1352853284.012,9344100,8973,-954,1564.04,1035.5430000000001,-0.789,-0.902
9379,1352853284.049,9344100,9037,-966,1561.483,1040.935,-0.755,-0.813
9383,1352853284.085,9344100,9099,-999,1557.625,1089.345,-0.778,-0.773
9387,1352853284.121,9344100,9146,-1023,1605.17,1107.114,-0.775,-0.784
9391,1352853284.155,9344100,9162,-1043,1639.7379999999998,1046.432,-0.748,-0.785
9395,1352853284.189,9344100,9174,-1071,1634.263,1013.197,-0.73,-0.7909999999999999
9399,1352853284.223,9344100,9201,-1094,1626.469,972.434,-0.774,-0.792
9403,1352853284.2589998,9344100,9239,-1128,1617.727,986.586,-0.86,-0.8390000000000001
9407,1352853284.299,9344100,9259,-1160,1608.3239999999998,927.563,-0.843,-0.8390000000000001
9411,1352853284.337,9344100,9281,-1198,1608.254,940.2560000000001,-0.9079999999999999,-0.878
9415,1352853284.3730001,9344100,9304,-1230,1608.2120000000002,991.665,-0.882,-0.88
9419,1352853284.408,9344100,9326,-1256,1609.231,935.6519999999999,-0.846,-0.877
9423,1352853284.443,9344100,9336,-1287,1606.404,999.325,-0.8370000000000001,-0.8740000000000001
9427,1352853284.478,9344100,9371,-1321,1605.372,1045.9669999999999,-0.856,-0.884
9431,1352853284.514,9344100,9405,-1351,1598.1660000000002,1082.1580000000001,-0.769,-0.8370000000000001
9435,1352853284.549,9344100,9432,-1373,1589.665,1158.368,-0.7659999999999999,-0.8340000000000001
9439,1352853284.585,9344100,9496,-1401,1593.411,1162.494,-0.7979999999999999,-0.8220000000000001
9443,1352853284.62,9344100,9558,-1430,1595.95,1218.287,-0.813,-0.821
9447,1352853284.6560001,9344100,9629,-1461,1598.0539999999999,1312.875,-0.792,-0.773
9451,1352853284.692,9344100,9716,-1493,1592.275,1321.411,-0.753,-0.8290000000000001
9455,1352853284.726,9344100,9770,-1542,1585.26,1328.98,-0.899,-0.904
9459,1352853284.763,9344100,9824,-1605,1585.91,1378.326,-0.909,-0.895
9463,1352853284.8,9344100,9868,-1670,1584.0710000000001,1401.71,-0.879,-0.902
9467,1352853284.838,9344100,9909,-1735,1585.057,1429.963,-0.9129999999999999,-0.95
9471,1352853284.875,9344100,9941,-1795,1586.0479999999998,1426.9779999999998,-0.9590000000000001,-0.971
9475,1352853284.912,9344100,9962,-1831,1583.885,1402.056,-1.0490000000000002,-1.021
9479,1352853284.947,9344100,9997,-1854,1576.13,1334.739,-1.011,-1.011
9483,1352853284.983,9344100,10028,-1885,1568.356,1247.622,-0.995,-1.026
9487,1352853285.023,9344100,10027,-1913,1592.996,1129.02,-1.0290000000000001,-1.052
9491,1352853285.061,9344100,10041,-1949,1605.723,1096.1889999999999,-1.065,-1.073
9495,1352853285.098,9344100,10084,-2036,1614.235,1249.864,-1.081,-1.107
9499,1352853285.135,9344100,10109,-2096,1618.306,1250.1860000000001,-1.0590000000000002,-1.1440000000000001
9503,1352853285.172,9344100,10150,-2156,1660.057,1297.942,-1.051,-1.12
9507,1352853285.2089999,9344100,10172,-2207,1694.256,1296.22,-1.0959999999999999,-1.133
9511,1352853285.246,9344100,10191,-2194,1699.281,1085.488,-1.01,-1.138
9515,1352853285.2810001,9344100,10211,-2197,1704.879,1054.539,-1.021,-1.083
9519,1352853285.315,9344100,10207,-2187,1696.9679999999998,1007.6439999999999,-1.071,-1.0859999999999999
9523,1352853285.352,9344100,10248,-2233,1696.921,992.926,-0.945,-0.99
9527,1352853285.388,9344100,10270,-2256,1691.882,1042.566,-0.98,-0.983
9531,1352853285.426,9344100,10310,-2282,1684.747,1142.062,-0.9259999999999999,-0.9620000000000001
9535,1352853285.462,9344100,10346,-2308,1678.8139999999999,1121.411,-0.938,-0.95
9539,1352853285.4989998,9344100,10387,-2327,1678.0079999999998,1107.479,-0.937,-0.861
9543,1352853285.535,9344100,10430,-2348,1676.8829999999998,1154.361,-0.8759999999999999,-0.843
9547,1352853285.571,9344100,10485,-2341,1668.3139999999999,1270.228,-0.805,-0.797
9551,1352853285.609,9344100,10505,-2355,1661.672,1325.195,-0.838,-0.8009999999999999
9555,1352853285.6460001,9344100,10556,-2393,1656.9229999999998,1390.746,-0.794,-0.787
9559,1352853285.682,9344100,10608,-2446,1687.6970000000001,1427.0539999999999,-0.7659999999999999,-0.804
9563,1352853285.718,9344100,10671,-2497,1702.723,1466.9170000000001,-0.736,-0.8029999999999999
9567,1352853285.756,9344100,10707,-2562,1701.057,1508.3429999999998,-0.787,-0.825
9571,1352853285.792,9344100,10728,-2597,1698.263,1435.565,-0.847,-0.847
9575,1352853285.828,9344100,10759,-2650,1706.424,1537.079,-0.8190000000000001,-0.84
9579,1352853285.8639998,9344100,10794,-2701,1709.3039999999999,1539.781,-0.8440000000000001,-0.851
9583,1352853285.9,9344100,10815,-2715,1702.764,1374.266,-0.865,-0.835
9587,1352853285.934,9344100,10824,-2707,1695.5220000000002,1225.788,-0.831,-0.8009999999999999
9591,1352853285.967,9344100,10847,-2716,1690.181,1261.286,-0.813,-0.815
9595,1352853286.0,9344100,10883,-2748,1700.681,1214.542,-0.812,-0.794
9599,1352853286.036,9344100,10920,-2790,1706.066,1296.424,-0.831,-0.805
9603,1352853286.071,9344100,10957,-2843,1699.513,1271.7,-0.858,-0.83
9607,1352853286.106,9344100,10984,-2915,1731.6870000000001,1287.875,-0.96,-0.917
9611,1352853286.14,9344100,11000,-2962,1743.03,1319.1970000000001,-1.036,-0.9690000000000001
9615,1352853286.177,9344100,11028,-2998,1742.217,1308.8210000000001,-1.074,-0.98
9619,1352853286.211,9344100,11043,-3023,1740.4520000000002,1344.306,-1.035,-0.9840000000000001
9623,1352853286.246,9344100,11054,-3022,1735.5810000000001,1311.233,-0.9620000000000001,-0.953
9627,1352853286.2810001,9344100,11076,-3073,1734.219,1319.884,-0.96,-0.973
9631,1352853286.319,9344100,11093,-3142,1732.878,1284.5430000000001,-1.002,-0.993
9635,1352853286.3539999,9344100,11105,-3176,1725.7089999999998,1325.256,-1.057,-1.0590000000000002
9639,1352853286.389,9344100,11125,-3213,1719.249,1298.997,-1.052,-1.08
9643,1352853286.427,9344100,11140,-3218,1702.126,1148.995,-1.058,-1.073
9647,1352853286.464,9344100,11141,-3239,1682.3429999999998,1032.605,-1.1420000000000001,-1.102
9651,1352853286.504,9344100,11151,-3276,1667.896,926.515,-1.185,-1.136
9655,1352853286.54,9344100,11157,-3300,1662.0020000000002,902.925,-1.2930000000000001,-1.148
9659,1352853286.574,9344100,11166,-3299,1657.1970000000001,858.04,-1.1840000000000002,-1.126
9663,1352853286.609,9344100,11188,-3322,1654.293,878.6389999999999,-1.176,-1.122
9667,1352853286.644,9344100,11220,-3346,1648.2879999999998,844.4110000000001,-1.074,-1.094
9671,1352853286.679,9344100,11252,-3376,1637.183,841.9119999999999,-1.084,-1.061
9675,1352853286.715,9344100,11294,-3387,1625.519,908.4839999999999,-1.025,-1.012
9679,1352853286.7519999,9344100,11347,-3393,1621.122,974.5989999999999,-0.868,-0.976
9683,1352853286.788,9344100,11382,-3397,1621.392,1018.932,-0.9209999999999999,-0.958
9687,1352853286.824,9344100,11419,-3454,1647.2420000000002,1035.026,-0.9470000000000001,-0.9209999999999999
9691,1352853286.859,9344100,11432,-3499,1656.4489999999998,1052.782,-1.0170000000000001,-0.9940000000000001
9695,1352853286.894,9344100,11461,-3527,1650.296,1073.319,-0.9540000000000001,-0.9740000000000001
9699,1352853286.93,9344100,11490,-3563,1649.15,1096.451,-0.9259999999999999,-0.9740000000000001
9703,1352853286.967,9344100,11537,-3578,1646.342,974.665,-0.877,-0.924
9707,1352853287.003,9344100,11577,-3601,1660.932,969.071,-0.852,-0.902
9711,1352853287.038,9344100,11621,-3616,1667.207,976.2139999999999,-0.847,-0.86
9715,1352853287.072,9344100,11648,-3637,1696.649,956.673,-0.83,-0.861
9719,1352853287.1069999,9344100,11688,-3722,1722.621,992.235,-0.855,-0.898
9724,1352853287.1430001,9344100,11711,-3771,1735.065,923.148,-0.935,-0.971
9729,1352853287.181,9344100,11706,-3788,1726.483,805.6619999999999,-0.993,-0.9840000000000001
9734,1352853287.22,9344100,11731,-3865,1722.8270000000002,876.87,-1.0290000000000001,-1.04
9739,1352853287.257,9344100,11746,-3896,1713.5829999999999,871.054,-1.034,-1.0390000000000001
9744,1352853287.292,9344100,11769,-3941,1712.04,864.841,-1.094,-1.075
9749,1352853287.327,9344100,11790,-3979,1705.261,880.1510000000001,-1.084,-1.044
9754,1352853287.363,9344100,11818,-4015,1691.065,904.9069999999999,-1.063,-1.014
9759,1352853287.399,9344100,11862,-4053,1704.5179999999998,845.377,-0.986,-0.9990000000000001
9764,1352853287.436,9344100,11900,-4092,1712.231,851.982,-0.985,-0.9329999999999999
9769,1352853287.474,9344100,11928,-4126,1708.13,827.163,-1.002,-0.924
9774,1352853287.51,9344100,11962,-4152,1704.415,832.675,-0.9329999999999999,-0.9179999999999999
9778,1352853287.549,9344100,11979,-4187,1707.685,871.335,-0.9840000000000001,-0.961
9782,1352853287.585,9344100,11988,-4211,1708.3429999999998,856.415,-1.038,-1.021
9786,1352853287.62,9344100,12009,-4225,1697.8929999999998,784.878,-0.96,-0.997
9790,1352853287.657,9344100,12028,-4247,1690.7910000000002,776.683,-0.94,-0.983
9794,1352853287.694,9344100,12049,-4278,1686.57,761.3439999999999,-0.9670000000000001,-0.9620000000000001
9798,1352853287.731,9344100,12068,-4312,1678.815,751.6010000000001,-0.983,-0.9570000000000001
9802,1352853287.77,9344100,12087,-4350,1670.996,810.935,-1.042,-0.938
9806,1352853287.808,9344100,12113,-4404,1658.634,847.175,-1.033,-0.96
9810,1352853287.8439999,9344100,12135,-4441,1645.517,861.3919999999999,-1.014,-0.9690000000000001
9814,1352853287.88,9344100,12164,-4472,1670.615,867.18,-1.018,-0.993
9818,1352853287.917,9344100,12171,-4505,1676.973,866.23,-1.051,-1.015
9822,1352853287.958,9344100,12214,-4554,1680.779,921.7360000000001,-1.013,-1.042
9826,1352853287.995,9344100,12235,-4580,1678.97,972.554,-0.981,-1.0270000000000001
9830,1352853288.029,9344100,12260,-4618,1693.021,1033.165,-0.956,-1.004
9834,1352853288.065,9344100,12281,-4634,1698.692,977.932,-0.982,-1.018
9838,1352853288.1,9344100,12308,-4676,1696.815,973.699,-0.993,-1.055
9842,1352853288.138,9344100,12320,-4743,1692.783,995.09,-1.1079999999999999,-1.123
9846,1352853288.173,9344100,12312,-4783,1690.4879999999998,1025.864,-1.113,-1.121
9850,1352853288.2089999,9344100,12403,-4829,1678.213,1121.344,-1.012,-1.036
9854,1352853288.247,9344100,12444,-4862,1664.495,1101.072,-1.004,-0.991
9858,1352853288.282,9344100,12492,-4927,1651.3220000000001,1161.494,-0.943,-0.9470000000000001
9862,1352853288.317,9344100,12529,-4961,1636.6879999999999,1175.393,-0.893,-0.8690000000000001
9866,1352853288.356,9344100,12580,-5011,1624.435,1164.56,-0.8370000000000001,-0.887
9870,1352853288.392,9344100,12579,-5036,1612.2820000000002,1139.354,-0.8959999999999999,-0.871
9874,1352853288.426,9344100,12556,-5061,1598.523,1095.402,-0.9990000000000001,-0.932
9878,1352853288.462,9344100,12599,-5097,1606.007,1126.08,-0.8959999999999999,-0.9009999999999999
9882,1352853288.496,9344100,12653,-5134,1609.505,1202.253,-0.865,-0.879
9886,1352853288.53,9344100,12698,-5170,1604.415,1230.74,-0.8240000000000001,-0.855
9890,1352853288.566,9344100,12732,-5201,1598.756,1177.384,-0.816,-0.826
9894,1352853288.603,9344100,12772,-5236,1589.365,1185.085,-0.82,-0.8009999999999999
9898,1352853288.639,9344100,12836,-5284,1581.9589999999998,1187.528,-0.733,-0.754
9902,1352853288.677,9344100,12889,-5329,1574.03,1198.6889999999999,-0.762,-0.753
9906,1352853288.716,9344100,12935,-5368,1566.299,1166.585,-0.784,-0.7440000000000001
9910,1352853288.7510002,9344100,12950,-5402,1559.194,1168.607,-0.772,-0.733
9914,1352853288.787,9344100,12979,-5445,1548.624,1124.7830000000001,-0.804,-0.7879999999999999
9918,1352853288.824,9344100,13022,-5478,1538.727,1114.945,-0.784,-0.7929999999999999
9922,1352853288.862,9344100,13053,-5513,1568.368,1123.923,-0.7659999999999999,-0.805
9926,1352853288.898,9344100,13088,-5533,1573.6,1130.253,-0.708,-0.76
9930,1352853288.936,9344100,13123,-5592,1627.986,1077.559,-0.747,-0.73
9934,1352853288.973,9344100,13153,-5622,1647.955,1072.828,-0.737,-0.773
9938,1352853289.0110002,9344100,13244,-5599,1644.859,1043.4660000000001,-0.563,-0.5710000000000001
9942,1352853289.047,9344100,13297,-5580,1641.95,948.615,-0.474,-0.5479999999999999
9946,1352853289.0839999,9344100,13334,-5607,1644.106,994.622,-0.5820000000000001,-0.56
9950,1352853289.121,9344100,13348,-5672,1643.6670000000001,1092.3239999999998,-0.6709999999999999,-0.621
9954,1352853289.159,9344100,13375,-5723,1639.88,1150.853,-0.715,-0.667
9958,1352853289.196,9344100,13404,-5759,1658.894,1185.3310000000001,-0.7090000000000001,-0.636
9962,1352853289.233,9344100,13434,-5797,1663.6729999999998,1229.03,-0.718,-0.626
9966,1352853289.2710001,9344100,13458,-5836,1669.1889999999999,1218.228,-0.764,-0.7090000000000001
9970,1352853289.308,9344100,13485,-5875,1670.819,1131.8210000000001,-0.757,-0.76
9974,1352853289.345,9344100,13503,-5894,1663.412,1022.472,-0.774,-0.7340000000000001
9978,1352853289.3839998,9344100,13526,-5911,1656.6129999999998,974.426,-0.71,-0.706
9982,1352853289.42,9344100,13536,-5921,1646.787,887.921,-0.7909999999999999,-0.711
9986,1352853289.46,9344100,13569,-5963,1646.7979999999998,958.97,-0.747,-0.69
9990,1352853289.496,9344100,13595,-5987,1646.0320000000002,985.773,-0.76,-0.703
9994,1352853289.534,9344100,13615,-6012,1638.467,925.5939999999999,-0.8420000000000001,-0.7190000000000001
9998,1352853289.57,9344100,13635,-6047,1630.809,945.3860000000001,-0.818,-0.727
10002,1352853289.608,9344100,13675,-6136,1698.2920000000001,1076.367,-0.8190000000000001,-0.792
10006,1352853289.644,9344100,13715,-6186,1724.4070000000002,1149.896,-0.8059999999999999,-0.825
10010,1352853289.68,9344100,13749,-6222,1719.414,1111.704,-0.763,-0.779
10014,1352853289.716,9344100,13771,-6245,1710.634,1097.1689999999999,-0.73,-0.7609999999999999
10018,1352853289.753,9344100,13792,-6263,1701.807,1065.921,-0.703,-0.752
10022,1352853289.789,9344100,13822,-6288,1702.134,1047.287,-0.659,-0.74
