,time,id,x,y,z,velocity,angle of motion,facing angle
11726,1352853300.842,9350000,42492,-18249,1589.0510000000002,932.9860000000001,2.8510000000000004,0.0
11734,1352853300.8769999,9350000,42491,-18248,1585.317,925.355,2.8689999999999998,2.5540000000000003
11742,1352853300.913,9350000,42450,-18230,1586.082,889.686,2.8310000000000004,2.654
11751,1352853300.949,9350000,42424,-18220,1586.126,871.648,2.7889999999999997,2.74
11760,1352853300.9889998,9350000,42377,-18216,1607.277,874.7180000000001,2.8360000000000003,2.8339999999999996
11769,1352853301.024,9350000,42363,-18294,1612.624,961.821,-2.99,-2.917
11778,1352853301.063,9350000,42307,-18314,1655.8570000000002,1091.461,-2.884,-2.891
11787,1352853301.103,9350000,42258,-18342,1658.685,1168.088,-2.8369999999999997,-2.855
11796,1352853301.14,9350000,42198,-18378,1667.662,1221.306,-2.81,-2.844
11805,1352853301.177,9350000,42128,-18406,1700.237,1305.637,-2.763,-2.7539999999999996
11814,1352853301.212,9350000,42068,-18424,1714.3010000000002,1421.7620000000002,-2.741,-2.72
11823,1352853301.247,9350000,42021,-18439,1710.3210000000001,1444.175,-2.733,-2.7030000000000003
11832,1352853301.284,9350000,41959,-18455,1719.935,1536.1170000000002,-2.718,-2.75
11841,1352853301.322,9350000,41928,-18458,1713.274,1483.475,-2.7239999999999998,-2.773
11850,1352853301.3569999,9350000,41865,-18442,1711.6889999999999,1573.979,-2.85,-2.825
11859,1352853301.391,9350000,41808,-18445,1706.184,1632.526,-2.793,-2.807
11868,1352853301.427,9350000,41733,-18447,1711.933,1668.879,-2.8289999999999997,-2.819
11877,1352853301.464,9350000,41684,-18465,1725.126,1622.504,-2.843,-2.818
11886,1352853301.5,9350000,41650,-18471,1719.3410000000001,1616.6370000000002,-2.842,-2.862
11895,1352853301.537,9350000,41634,-18483,1717.254,1510.866,-2.812,-2.843
11904,1352853301.574,9350000,41581,-18476,1714.525,1464.3120000000001,-2.86,-2.9210000000000003
11913,1352853301.613,9350000,41540,-18495,1710.141,1369.753,-2.877,-2.855
11922,1352853301.65,9350000,41485,-18495,1706.6689999999999,1447.509,-2.91,-2.925
11931,1352853301.687,9350000,41473,-18383,1697.484,1475.7420000000002,3.1310000000000002,3.1310000000000002
11940,1352853301.723,9350000,41418,-18383,1692.5320000000002,1463.8110000000001,-3.1239999999999997,3.112
11949,1352853301.7580001,9350000,41389,-18399,1691.101,1408.694,-3.135,3.125
11958,1352853301.796,9350000,41369,-18402,1688.079,1323.864,-3.033,-3.0980000000000003
11967,1352853301.838,9350000,41332,-18359,1676.726,1347.306,-3.1010000000000004,3.137
11976,1352853301.8739998,9350000,41315,-18404,1673.031,1320.868,-2.946,-3.0210000000000004
11985,1352853301.91,9350000,41272,-18433,1674.279,1355.239,-2.79,-2.917
11994,1352853301.947,9350000,41213,-18439,1673.266,1341.68,-2.822,-2.875
12003,1352853301.985,9350000,41188,-18425,1668.405,1323.3470000000002,-2.845,-2.889
12012,1352853302.0210001,9350000,41142,-18409,1663.626,1293.21,-2.9,-2.946
12021,1352853302.059,9350000,41100,-18387,1657.717,1230.904,-3.051,-3.05
12030,1352853302.096,9350000,41042,-18382,1648.995,1238.838,-3.0610000000000004,-3.065
12039,1352853302.1330001,9350000,40973,-18415,1649.514,1337.2,-2.938,-2.97
12048,1352853302.169,9350000,40934,-18372,1642.399,1328.299,-3.102,-3.127
12057,1352853302.208,9350000,40885,-18338,1636.3310000000001,1311.4489999999998,3.0239999999999996,3.0980000000000003
12066,1352853302.243,9350000,40859,-18323,1630.38,1202.12,3.011,3.065
12075,1352853302.278,9350000,40828,-18299,1620.433,1227.704,3.022,3.051
12084,1352853302.316,9350000,40785,-18299,1616.376,1221.715,3.043,3.109
12093,1352853302.352,9350000,40736,-18287,1609.21,1270.987,3.08,3.1
12102,1352853302.39,9350000,40686,-18314,1619.604,1266.499,-3.0610000000000004,-3.069
12111,1352853302.425,9350000,40612,-18350,1652.4170000000001,1462.8670000000002,-2.9730000000000003,-2.9739999999999998
12120,1352853302.46,9350000,40592,-18398,1657.359,1401.771,-2.81,-2.825
12130,1352853302.495,9350000,40515,-18431,1667.497,1509.912,-2.8480000000000003,-2.875
12141,1352853302.532,9350000,40443,-18467,1673.1270000000002,1640.076,-2.781,-2.847
12152,1352853302.569,9350000,40347,-18488,1671.808,1764.068,-2.853,-2.927
12163,1352853302.603,9350000,40261,-18500,1670.277,1910.684,-2.877,-2.889
12174,1352853302.64,9350000,40194,-18503,1666.1879999999999,1965.0539999999999,-2.897,-2.9019999999999997
12185,1352853302.673,9350000,40168,-18525,1660.4229999999998,1906.93,-2.759,-2.801
12196,1352853302.708,9350000,40153,-18536,1654.2520000000002,1747.4389999999999,-2.736,-2.7710000000000004
12207,1352853302.7410002,9350000,40106,-18565,1654.2160000000001,1685.619,-2.7089999999999996,-2.8560000000000003
12218,1352853302.776,9350000,40058,-18547,1650.629,1628.5,-2.826,-2.89
12229,1352853302.81,9350000,40007,-18546,1647.434,1608.497,-2.846,-2.884
12240,1352853302.843,9350000,39963,-18544,1642.729,1558.092,-2.904,-2.904
12251,1352853302.8760002,9350000,39917,-18547,1637.9370000000001,1516.899,-2.931,-2.9010000000000002
12262,1352853302.91,9350000,39862,-18554,1643.2220000000002,1557.885,-2.9139999999999997,-2.865
12273,1352853302.943,9350000,39810,-18557,1641.695,1505.933,-2.841,-2.884
12284,1352853302.977,9350000,39755,-18566,1640.592,1505.4160000000002,-2.8560000000000003,-2.9189999999999996
12295,1352853303.01,9350000,39699,-18559,1643.065,1545.7279999999998,-2.9410000000000003,-2.971
12306,1352853303.043,9350000,39646,-18534,1644.932,1594.977,-3.134,-3.103
12317,1352853303.076,9350000,39583,-18505,1702.3929999999998,1636.672,3.028,3.114
12328,1352853303.112,9350000,39536,-18483,1702.536,1516.911,3.008,3.0980000000000003
12339,1352853303.148,9350000,39488,-18466,1732.795,1529.229,3.022,3.102
12350,1352853303.183,9350000,39442,-18459,1734.124,1503.364,2.9989999999999997,3.0989999999999998
12361,1352853303.2189999,9350000,39400,-18452,1726.106,1500.8020000000001,3.112,3.117
12371,1352853303.253,9350000,39357,-18452,1725.96,1513.376,3.114,3.125
12381,1352853303.293,9350000,39297,-18439,1723.601,1429.2420000000002,3.069,3.089
12391,1352853303.329,9350000,39251,-18424,1714.654,1497.638,3.0589999999999997,3.108
12401,1352853303.365,9350000,39206,-18403,1708.35,1515.729,3.045,3.0580000000000003
12411,1352853303.398,9350000,39160,-18392,1705.7479999999998,1494.631,3.0589999999999997,3.054
12420,1352853303.431,9350000,39103,-18383,1705.06,1516.951,3.08,3.089
12429,1352853303.467,9350000,39028,-18350,1701.88,1544.129,2.9810000000000003,2.9589999999999996
12438,1352853303.5010002,9350000,38991,-18342,1716.932,1461.239,3.013,3.0189999999999997
12447,1352853303.534,9350000,38950,-18337,1715.231,1453.1329999999998,3.051,3.0469999999999997
12456,1352853303.567,9350000,38927,-18353,1713.624,1386.308,3.09,3.103
12465,1352853303.601,9350000,38912,-18365,1734.7,1305.448,-3.125,3.128
12474,1352853303.6339998,9350000,38885,-18391,1767.8039999999999,1259.259,-3.045,-3.0380000000000003
12483,1352853303.67,9350000,38844,-18404,1767.8829999999998,1244.9669999999999,-2.9989999999999997,-2.984
12492,1352853303.707,9350000,38807,-18408,1768.3470000000002,1205.704,-2.984,-2.9810000000000003
12501,1352853303.745,9350000,38756,-18407,1764.9489999999998,1242.58,-3.06,-3.073
12510,1352853303.78,9350000,38716,-18423,1760.266,1115.4,-2.95,-3.0210000000000004
12519,1352853303.817,9350000,38670,-18440,1755.0629999999999,1036.333,-2.91,-2.9619999999999997
12528,1352853303.852,9350000,38639,-18449,1750.8429999999998,984.747,-2.917,-3.008
12537,1352853303.887,9350000,38601,-18465,1746.17,991.918,-2.958,-2.9760000000000004
12546,1352853303.925,9350000,38560,-18474,1744.191,962.758,-2.9810000000000003,-3.008
12555,1352853303.962,9350000,38508,-18474,1742.241,959.445,-3.005,-3.052
12564,1352853303.997,9350000,38466,-18476,1740.01,956.765,-2.997,-3.0580000000000003
12573,1352853304.038,9350000,38429,-18492,1739.223,916.9019999999999,-3.04,-3.0380000000000003
12582,1352853304.076,9350000,38408,-18496,1741.529,902.688,-3.0839999999999996,-3.089
12591,1352853304.1139998,9350000,38355,-18508,1747.547,864.1010000000001,-3.056,-3.053
12600,1352853304.149,9350000,38293,-18514,1760.4,936.247,-3.091,-3.113
12609,1352853304.184,9350000,38232,-18493,1768.5320000000002,1018.102,3.033,3.0580000000000003
12618,1352853304.2189999,9350000,38139,-18489,1772.5179999999998,1175.172,2.9560000000000004,2.9360000000000004
12627,1352853304.255,9350000,38062,-18481,1774.1870000000001,1215.3419999999999,2.8810000000000002,2.898
12636,1352853304.288,9350000,37963,-18461,1774.366,1282.325,2.8480000000000003,2.8739999999999997
12645,1352853304.326,9350000,37827,-18420,1773.85,1546.33,2.781,2.7960000000000003
12654,1352853304.365,9350000,37737,-18375,1772.004,1683.4,2.702,2.7710000000000004
12663,1352853304.403,9350000,37685,-18346,1770.029,1665.77,2.7230000000000003,2.7489999999999997
12672,1352853304.44,9350000,37623,-18335,1767.931,1725.9229999999998,2.7739999999999996,2.734
12681,1352853304.476,9350000,37580,-18313,1766.911,1713.63,2.7569999999999997,2.727
12690,1352853304.515,9350000,37537,-18287,1766.175,1677.4479999999999,2.694,2.6830000000000003
12699,1352853304.553,9350000,37486,-18262,1765.979,1625.266,2.65,2.701
12708,1352853304.59,9350000,37443,-18252,1765.707,1575.1770000000001,2.701,2.747
12718,1352853304.629,9350000,37398,-18244,1765.5620000000001,1597.1860000000001,2.7239999999999998,2.762
12728,1352853304.6660001,9350000,37355,-18237,1765.505,1598.839,2.7760000000000002,2.763
12738,1352853304.702,9350000,37312,-18230,1775.711,1623.636,2.7539999999999996,2.803
12748,1352853304.744,9350000,37241,-18207,1786.1570000000002,1712.569,2.74,2.747
12758,1352853304.782,9350000,37186,-18195,1809.079,1677.723,2.708,2.748
12767,1352853304.819,9350000,37105,-18174,1811.862,1674.361,2.6839999999999997,2.752
12776,1352853304.8569999,9350000,37049,-18157,1811.763,1628.371,2.708,2.739
12785,1352853304.895,9350000,36992,-18155,1820.766,1662.392,2.7489999999999997,2.7880000000000003
12794,1352853304.932,9350000,36941,-18147,1828.056,1612.56,2.7319999999999998,2.7289999999999996
12803,1352853304.9689999,9350000,36861,-18151,1821.9479999999999,1595.401,2.85,2.858
12812,1352853305.005,9350000,36813,-18178,1810.13,1518.4879999999998,2.908,2.963
12821,1352853305.042,9350000,36750,-18207,1797.84,1479.287,3.025,3.057
12830,1352853305.078,9350000,36677,-18239,1785.154,1473.3210000000001,3.103,3.108
12839,1352853305.115,9350000,36581,-18287,1775.764,1521.16,-3.013,-3.074
12848,1352853305.151,9350000,36556,-18241,1806.241,1510.805,3.134,3.13
12857,1352853305.187,9350000,36537,-18187,1834.122,1560.352,3.055,3.052
12866,1352853305.222,9350000,36448,-18221,1822.98,1585.4070000000002,-3.137,3.136
12875,1352853305.257,9350000,36384,-18221,1812.865,1504.3629999999998,3.093,3.097
12885,1352853305.293,9350000,36295,-18260,1798.8010000000002,1372.27,3.094,3.103
12895,1352853305.327,9350000,36241,-18263,1787.97,1287.719,3.09,3.0989999999999998
12905,1352853305.363,9350000,36212,-18210,1791.918,1277.087,2.9339999999999997,2.9810000000000003
12915,1352853305.401,9350000,36179,-18166,1792.132,1357.339,2.761,2.872
12925,1352853305.438,9350000,36106,-18137,1795.7,1437.332,2.7760000000000002,2.84
12935,1352853305.478,9350000,36044,-18130,1798.632,1459.44,2.844,2.883
12945,1352853305.515,9350000,35964,-18122,1812.43,1453.411,2.9,2.917
12955,1352853305.553,9350000,35896,-18117,1821.8429999999998,1479.496,2.935,2.923
12965,1352853305.588,9350000,35898,-18088,1825.404,1430.809,2.782,2.806
12975,1352853305.628,9350000,35812,-18087,1818.683,1460.0410000000002,2.812,2.878
12985,1352853305.663,9350000,35746,-18096,1811.1960000000001,1382.0539999999999,2.89,2.923
12995,1352853305.702,9350000,35707,-18092,1839.126,1379.297,2.855,2.9339999999999997
13005,1352853305.738,9350000,35678,-18072,1856.777,1319.971,2.8289999999999997,2.908
13015,1352853305.775,9350000,35597,-18115,1850.0770000000002,1324.425,3.0060000000000002,3.029
13025,1352853305.811,9350000,35544,-18106,1840.158,1290.674,3.0380000000000003,3.048
13035,1352853305.849,9350000,35497,-18097,1831.6129999999998,1307.452,3.12,3.1189999999999998
13045,1352853305.888,9350000,35464,-18108,1822.2820000000002,1375.735,3.139,-3.1069999999999998
13055,1352853305.926,9350000,35422,-18125,1811.934,1366.618,-3.08,-3.103
13065,1352853305.963,9350000,35375,-18148,1800.464,1444.723,-3.0580000000000003,-3.0639999999999996
13075,1352853306.003,9350000,35306,-18141,1787.79,1526.8570000000002,-3.032,-3.076
13085,1352853306.0410001,9350000,35214,-18163,1788.057,1673.858,-3.022,-3.032
13095,1352853306.078,9350000,35145,-18186,1789.036,1689.096,-2.985,-3.057
13105,1352853306.1139998,9350000,35096,-18164,1785.5870000000002,1688.467,-3.074,3.133
13115,1352853306.151,9350000,35074,-18128,1783.769,1568.4479999999999,3.0469999999999997,3.0060000000000002
13125,1352853306.191,9350000,35062,-18111,1782.0520000000001,1392.116,2.967,2.9739999999999998
13135,1352853306.234,9350000,34981,-18111,1789.111,1500.24,2.96,2.96
13145,1352853306.274,9350000,34902,-18113,1806.76,1513.43,2.9339999999999997,2.972
13155,1352853306.313,9350000,34817,-18101,1813.3429999999998,1544.261,2.915,3.0010000000000003
13165,1352853306.352,9350000,34750,-18063,1805.02,1496.882,2.826,2.97
13175,1352853306.389,9350000,34686,-18064,1791.66,1523.6670000000001,2.813,3.043
13185,1352853306.428,9350000,34617,-18050,1792.924,1538.1879999999999,2.799,2.9739999999999998
13195,1352853306.465,9350000,34581,-18041,1793.725,1501.045,2.87,2.932
13205,1352853306.505,9350000,34576,-18057,1789.2879999999998,1288.816,2.892,2.97
13215,1352853306.5410001,9350000,34519,-18070,1782.349,1347.162,2.966,2.9819999999999998
13225,1352853306.577,9350000,34451,-18075,1783.4270000000001,1371.35,2.9989999999999997,2.997
13235,1352853306.618,9350000,34395,-18054,1781.825,1402.4360000000001,2.927,2.9810000000000003
13245,1352853306.658,9350000,34297,-18031,1779.777,1491.0739999999998,2.865,2.9360000000000004
13255,1352853306.697,9350000,34172,-17982,1808.851,1596.092,2.81,2.8539999999999996
13265,1352853306.733,9350000,34096,-17977,1820.025,1595.307,2.885,2.838
13275,1352853306.769,9350000,34042,-17962,1841.07,1533.5739999999998,2.7889999999999997,2.803
13285,1352853306.807,9350000,33987,-17928,1850.994,1516.28,2.715,2.733
13295,1352853306.8439999,9350000,33941,-17901,1847.655,1513.011,2.688,2.7489999999999997
13305,1352853306.881,9350000,33851,-17895,1851.5639999999999,1581.8670000000002,2.773,2.81
13315,1352853306.92,9350000,33800,-17889,1850.221,1530.74,2.819,2.826
13325,1352853306.962,9350000,33711,-17883,1854.0629999999999,1446.6,2.885,2.867
13335,1352853306.9980001,9350000,33667,-17917,1855.254,1306.547,2.864,2.8539999999999996
13345,1352853307.035,9350000,33621,-17959,1868.6589999999999,1177.3110000000001,2.8739999999999997,2.9
13355,1352853307.071,9350000,33569,-17980,1866.1760000000002,1201.635,2.964,3.01
13365,1352853307.106,9350000,33535,-18014,1861.747,1181.471,3.075,3.051
13375,1352853307.144,9350000,33477,-18044,1859.2839999999999,1162.119,3.1289999999999996,3.0839999999999996
13385,1352853307.18,9350000,33418,-18062,1873.672,1181.836,3.117,-3.14
13395,1352853307.218,9350000,33372,-18051,1867.8029999999999,1158.458,2.9819999999999998,3.105
13405,1352853307.256,9350000,33333,-18033,1861.763,1052.8210000000001,2.949,3.02
13415,1352853307.294,9350000,33301,-18028,1857.72,947.544,2.955,3.02
13425,1352853307.331,9350000,33240,-18041,1853.7089999999998,1024.654,3.0669999999999997,3.083
13435,1352853307.3660002,9350000,33192,-18023,1850.328,1053.4769999999999,2.955,3.003
13445,1352853307.401,9350000,33160,-17992,1847.0410000000002,1027.731,2.833,2.945
13455,1352853307.439,9350000,33129,-17950,1838.111,1014.0980000000001,2.784,2.8960000000000004
13465,1352853307.473,9350000,33119,-17938,1828.43,957.742,2.863,2.917
13475,1352853307.5089998,9350000,33105,-17933,1821.4029999999998,933.959,2.842,2.952
13485,1352853307.543,9350000,33068,-17926,1814.661,998.492,2.8360000000000003,2.911
13495,1352853307.58,9350000,33045,-17924,1813.1229999999998,915.3960000000001,2.888,2.906
13505,1352853307.618,9350000,32989,-17905,1802.471,954.987,2.775,2.861
13515,1352853307.653,9350000,32962,-17901,1790.389,995.2560000000001,2.759,2.8939999999999997
13525,1352853307.693,9350000,32808,-17860,1829.233,1091.34,2.622,2.735
13535,1352853307.7289999,9350000,32664,-17859,1886.391,1184.886,2.597,2.603
13545,1352853307.764,9350000,32648,-17823,1882.7120000000002,1164.068,2.575,2.634
13555,1352853307.798,9350000,32698,-17799,1864.957,1054.4660000000001,2.483,2.49
13565,1352853307.836,9350000,32637,-17790,1868.2279999999998,1109.78,2.517,2.5810000000000004
13575,1352853307.871,9350000,32524,-17775,1882.06,1286.213,2.602,2.6439999999999997
13585,1352853307.908,9350000,32479,-17755,1876.0710000000001,1313.944,2.583,2.662
13595,1352853307.945,9350000,32453,-17742,1864.0529999999999,1277.827,2.622,2.6710000000000003
13605,1352853307.983,9350000,32425,-17728,1858.783,1292.8110000000001,2.628,2.715
13615,1352853308.0210001,9350000,32376,-17710,1860.596,1240.219,2.688,2.7460000000000004
13625,1352853308.058,9350000,32349,-17693,1861.145,1161.738,2.6630000000000003,2.708
13635,1352853308.0939999,9350000,32188,-17635,1839.5739999999998,1209.47,2.633,2.7230000000000003
13645,1352853308.132,9350000,32133,-17614,1825.2220000000002,1322.486,2.667,2.739
13655,1352853308.167,9350000,32097,-17597,1825.601,1275.322,2.623,2.753
13665,1352853308.203,9350000,31970,-17671,1813.3020000000001,1492.229,3.0780000000000003,3.122
13675,1352853308.24,9350000,31886,-17716,1802.711,1624.227,-2.875,-2.88
13685,1352853308.277,9350000,31888,-17694,1788.085,1373.589,-2.949,-2.89
13695,1352853308.316,9350000,31843,-17709,1787.981,1308.285,-2.907,-2.9189999999999996
13705,1352853308.3539999,9350000,31794,-17725,1787.981,1230.652,-2.9619999999999997,-2.9939999999999998
13715,1352853308.39,9350000,31720,-17727,1787.402,1367.56,-3.03,-3.062
13725,1352853308.435,9350000,31664,-17736,1787.545,1287.59,-2.975,-3.071
13735,1352853308.47,9350000,31626,-17752,1787.545,1180.792,-2.9610000000000003,-3.048
13745,1352853308.506,9350000,31585,-17759,1787.545,1184.3519999999999,-3.0039999999999996,-3.0869999999999997
13755,1352853308.543,9350000,31546,-17755,1787.545,1065.875,-3.0989999999999998,-3.138
13765,1352853308.581,9350000,31374,-17551,1775.977,1854.0420000000001,2.609,2.782
13775,1352853308.619,9350000,31336,-17533,1762.614,1819.276,2.56,2.7119999999999997
13785,1352853308.657,9350000,31367,-17515,1763.981,1453.365,2.472,2.525
13795,1352853308.693,9350000,31270,-17463,1751.531,1557.308,2.535,2.541
13805,1352853308.728,9350000,31212,-17422,1734.646,1568.984,2.58,2.544
13815,1352853308.764,9350000,31150,-17383,1718.193,1603.122,2.549,2.55
13825,1352853308.801,9350000,31086,-17336,1700.545,1648.484,2.5610000000000004,2.549
13835,1352853308.836,9350000,31008,-17307,1686.601,1731.0770000000002,2.648,2.62
13845,1352853308.872,9350000,30938,-17292,1670.56,1717.9620000000002,2.708,2.68
13855,1352853308.908,9350000,30878,-17265,1656.473,1700.213,2.6839999999999997,2.702
13865,1352853308.943,9350000,30850,-17255,1639.994,1542.854,2.633,2.642
13875,1352853308.978,9350000,30824,-17234,1631.0729999999999,1470.235,2.548,2.642
13885,1352853309.015,9350000,30805,-17219,1623.165,1439.1870000000001,2.484,2.628
13895,1352853309.05,9350000,30755,-17190,1613.514,1435.364,2.522,2.679
13905,1352853309.086,9350000,30722,-17169,1602.624,1391.267,2.502,2.638
13915,1352853309.1260002,9350000,30688,-17142,1595.789,1353.066,2.557,2.656
13925,1352853309.168,9350000,30625,-17102,1585.649,1408.828,2.6260000000000003,2.6660000000000004
13935,1352853309.203,9350000,30579,-17083,1575.497,1420.976,2.656,2.7060000000000004
13945,1352853309.244,9350000,30448,-17026,1632.168,1762.5620000000001,2.765,2.7239999999999998
13955,1352853309.283,9350000,30341,-16991,1675.6570000000002,1910.244,2.781,2.708
13965,1352853309.322,9350000,30269,-16967,1696.828,1894.704,2.739,2.695
13975,1352853309.358,9350000,30183,-16930,1722.941,1949.9589999999998,2.806,2.74
13985,1352853309.4,9350000,30117,-16900,1736.0079999999998,1938.146,2.765,2.715
13995,1352853309.44,9350000,30078,-16922,1730.82,1900.668,2.823,2.815
