,time,id,x,y,z,velocity,angle of motion,facing angle
17278,1352853318.837,9351800,41866,-18447,1475.405,973.693,3.123,0.0
17295,1352853318.8730001,9351800,41866,-18450,1465.101,969.043,3.13,-3.002
17312,1352853318.912,9351800,41839,-18448,1482.139,924.183,-3.0439999999999996,-3.063
17329,1352853318.951,9351800,41820,-18450,1477.604,901.071,-2.967,-2.9789999999999996
17346,1352853318.99,9351800,41799,-18449,1473.8429999999998,899.97,-2.9360000000000004,-2.98
17363,1352853319.03,9351800,41778,-18449,1469.49,857.304,-2.9410000000000003,-3.01
17380,1352853319.068,9351800,41754,-18454,1463.567,803.115,-2.969,-3.014
17397,1352853319.105,9351800,41715,-18438,1457.9,822.2230000000001,-3.117,-3.128
17414,1352853319.1460001,9351800,41671,-18443,1456.253,878.319,-3.0580000000000003,-3.053
17431,1352853319.185,9351800,41624,-18425,1452.7020000000002,898.7180000000001,-3.0839999999999996,-3.0989999999999998
17448,1352853319.221,9351800,41580,-18384,1446.6779999999999,919.198,3.0860000000000003,3.0589999999999997
17465,1352853319.263,9351800,41543,-18410,1441.842,958.7610000000001,-3.0069999999999997,-3.003
17482,1352853319.299,9351800,41475,-18378,1434.389,1045.943,3.139,-3.125
17499,1352853319.336,9351800,41442,-18354,1425.838,1067.683,3.08,-3.13
17516,1352853319.375,9351800,41408,-18374,1417.32,1036.869,-3.034,-3.108
17533,1352853319.414,9351800,41374,-18365,1408.3729999999998,1042.829,-3.0810000000000004,-3.1060000000000003
17550,1352853319.453,9351800,41347,-18380,1399.8339999999998,1115.9180000000001,-2.964,-3.0380000000000003
17567,1352853319.49,9351800,41317,-18414,1392.511,1154.872,-2.843,-2.9330000000000003
17584,1352853319.527,9351800,41316,-18380,1387.783,1017.568,-2.949,-3.0010000000000003
17601,1352853319.562,9351800,41278,-18356,1382.0539999999999,984.132,-3.0239999999999996,-3.1
17618,1352853319.598,9351800,41259,-18340,1375.731,850.625,3.125,3.089
17635,1352853319.6360002,9351800,41232,-18322,1366.443,841.4739999999999,3.011,3.04
17652,1352853319.675,9351800,41184,-18325,1359.13,900.587,3.017,3.062
17669,1352853319.715,9351800,41141,-18325,1349.886,922.632,3.0789999999999997,-3.123
17686,1352853319.7510002,9351800,41110,-18317,1341.477,934.2689999999999,3.0869999999999997,-3.1310000000000002
17703,1352853319.79,9351800,41072,-18316,1336.547,948.9810000000001,3.0460000000000003,-3.1180000000000003
17720,1352853319.83,9351800,41057,-18307,1333.009,897.71,2.992,3.116
17737,1352853319.869,9351800,41018,-18304,1327.2279999999998,910.887,3.045,-3.114
17754,1352853319.9060001,9351800,40962,-18291,1323.092,957.913,3.094,-3.113
17771,1352853319.943,9351800,40926,-18290,1323.3120000000001,968.3330000000001,3.102,3.1010000000000004
17788,1352853319.984,9351800,40889,-18290,1323.3120000000001,931.826,-3.127,-3.1310000000000002
17805,1352853320.023,9351800,40854,-18292,1323.3120000000001,900.279,-3.0810000000000004,-3.1
17822,1352853320.06,9351800,40723,-18296,1307.569,1148.951,-3.093,-3.0839999999999996
17839,1352853320.097,9351800,40682,-18303,1297.407,1208.223,3.113,3.1189999999999998
17856,1352853320.1339998,9351800,40648,-18326,1283.61,1144.924,3.068,-3.1260000000000003
17873,1352853320.171,9351800,40622,-18337,1276.4460000000001,1146.562,-3.133,-3.094
17891,1352853320.2089999,9351800,40586,-18331,1271.125,1141.597,3.1310000000000002,-3.13
17909,1352853320.2489998,9351800,40526,-18339,1368.7920000000001,1191.23,3.0610000000000004,3.0869999999999997
17927,1352853320.286,9351800,40484,-18332,1368.514,1150.745,2.992,3.0069999999999997
17945,1352853320.321,9351800,40439,-18299,1362.4879999999998,1099.161,2.928,2.9360000000000004
17963,1352853320.359,9351800,40422,-18271,1352.61,1035.3110000000001,2.818,2.8680000000000003
17981,1352853320.397,9351800,40380,-18266,1352.845,1020.671,2.862,2.884
17999,1352853320.434,9351800,40344,-18235,1345.8039999999999,1058.478,2.786,2.755
18017,1352853320.473,9351800,40308,-18216,1338.7910000000002,1018.498,2.8339999999999996,2.783
18035,1352853320.515,9351800,40272,-18196,1333.1589999999999,1031.806,2.7060000000000004,2.737
18053,1352853320.554,9351800,40237,-18204,1340.7479999999998,1061.848,2.805,2.8280000000000003
18071,1352853320.591,9351800,40221,-18193,1334.546,1009.298,2.7910000000000004,2.78
18089,1352853320.629,9351800,40195,-18185,1325.555,993.872,2.779,2.7119999999999997
18107,1352853320.67,9351800,40163,-18177,1319.319,937.695,2.7539999999999996,2.748
18125,1352853320.7089999,9351800,40136,-18179,1316.1979999999999,940.367,2.8139999999999996,2.783
18142,1352853320.7480001,9351800,40098,-18171,1316.326,988.8919999999999,2.7969999999999997,2.7910000000000004
18159,1352853320.788,9351800,40060,-18169,1308.765,981.816,2.7769999999999997,2.793
18176,1352853320.827,9351800,40013,-18168,1300.877,965.9019999999999,2.8360000000000003,2.861
18193,1352853320.8660002,9351800,39961,-18188,1312.289,1064.411,2.8680000000000003,2.873
18210,1352853320.905,9351800,39906,-18170,1309.624,1063.098,2.897,2.917
18226,1352853320.943,9351800,39866,-18163,1309.672,1053.766,2.864,2.877
18242,1352853320.98,9351800,39778,-18178,1308.753,1209.89,3.016,2.926
18258,1352853321.016,9351800,39735,-18178,1308.925,1167.243,3.08,2.977
18274,1352853321.052,9351800,39695,-18172,1305.667,1218.522,3.0189999999999997,3.0010000000000003
18290,1352853321.091,9351800,39637,-18180,1304.687,1214.248,3.1260000000000003,3.1180000000000003
18306,1352853321.1260002,9351800,39606,-18199,1303.628,1134.302,-2.983,-3.013
18322,1352853321.162,9351800,39545,-18218,1303.058,1213.04,-2.903,-2.924
18338,1352853321.199,9351800,39502,-18242,1301.4,1271.1,-2.7889999999999997,-2.755
18354,1352853321.238,9351800,39463,-18275,1300.027,1378.3929999999998,-2.682,-2.675
18370,1352853321.276,9351800,39422,-18299,1298.691,1332.129,-2.679,-2.67
18386,1352853321.316,9351800,39355,-18324,1367.094,1481.4560000000001,-2.739,-2.681
18402,1352853321.351,9351800,39305,-18333,1368.092,1462.769,-2.785,-2.7739999999999996
18418,1352853321.388,9351800,39260,-18324,1369.351,1431.2820000000002,-2.858,-2.859
18434,1352853321.429,9351800,39192,-18314,1384.195,1462.0910000000001,-2.929,-2.9139999999999997
18450,1352853321.465,9351800,39151,-18317,1447.435,1444.755,-2.963,-2.93
18466,1352853321.503,9351800,39094,-18316,1449.85,1363.3629999999998,-2.9760000000000004,-2.9760000000000004
18482,1352853321.5410001,9351800,39039,-18299,1453.4229999999998,1382.5479999999998,-3.052,-3.068
18498,1352853321.574,9351800,38985,-18280,1455.589,1373.0739999999998,3.07,3.117
18514,1352853321.608,9351800,38940,-18251,1451.28,1426.6270000000002,3.093,3.114
18530,1352853321.6430001,9351800,38897,-18222,1450.575,1485.224,3.02,3.049
18546,1352853321.681,9351800,38833,-18199,1473.3729999999998,1489.099,3.0039999999999996,3.0269999999999997
18562,1352853321.7189999,9351800,38772,-18189,1473.108,1430.25,3.01,3.0189999999999997
18579,1352853321.7589998,9351800,38707,-18181,1471.1729999999998,1433.467,2.9760000000000004,3.011
18596,1352853321.797,9351800,38637,-18171,1470.457,1466.5539999999999,2.929,2.9419999999999997
18613,1352853321.833,9351800,38614,-18131,1471.056,1376.3970000000002,2.839,2.918
18630,1352853321.868,9351800,38575,-18115,1474.3329999999999,1380.013,2.799,2.903
18647,1352853321.905,9351800,38537,-18090,1473.6670000000001,1328.07,2.815,2.887
18664,1352853321.941,9351800,38497,-18075,1473.596,1269.839,2.793,2.842
18682,1352853321.976,9351800,38465,-18079,1473.1470000000002,1209.243,2.747,2.787
18700,1352853322.0110002,9351800,38442,-18070,1472.592,1177.221,2.7310000000000003,2.765
18718,1352853322.048,9351800,38415,-18064,1481.773,1133.432,2.742,2.78
18736,1352853322.0839999,9351800,38382,-18062,1485.892,1056.8419999999999,2.7119999999999997,2.7510000000000003
18754,1352853322.125,9351800,38348,-18044,1487.0739999999998,1012.12,2.6689999999999996,2.7510000000000003
18772,1352853322.164,9351800,38299,-18016,1492.8970000000002,1029.068,2.739,2.787
18790,1352853322.202,9351800,38253,-17997,1494.739,1014.347,2.7710000000000004,2.8169999999999997
18808,1352853322.237,9351800,38242,-18002,1494.5539999999999,970.675,2.84,2.85
18826,1352853322.274,9351800,38207,-18000,1494.121,906.942,2.863,2.9010000000000002
18844,1352853322.311,9351800,38186,-18016,1492.6779999999999,874.716,2.988,3.029
18862,1352853322.348,9351800,38145,-18036,1491.332,865.362,3.125,3.057
18880,1352853322.385,9351800,38114,-18053,1488.8120000000001,879.6339999999999,-3.069,3.113
18898,1352853322.423,9351800,38067,-18068,1487.703,947.209,-3.122,3.105
18916,1352853322.46,9351800,38024,-18073,1486.37,977.395,-3.113,3.074
18933,1352853322.497,9351800,37980,-18096,1485.1170000000002,1029.547,-3.1,3.115
18950,1352853322.533,9351800,37927,-18101,1485.126,1035.782,-3.072,3.133
18967,1352853322.572,9351800,37869,-18098,1493.0720000000001,962.3430000000001,3.1319999999999997,3.074
18984,1352853322.61,9351800,37819,-18120,1494.019,948.0369999999999,3.114,3.0980000000000003
19001,1352853322.6460001,9351800,37789,-18118,1503.388,942.34,3.138,3.083
19018,1352853322.682,9351800,37749,-18109,1503.72,923.8330000000001,3.08,3.1010000000000004
19035,1352853322.7189999,9351800,37713,-18114,1504.195,895.1039999999999,3.062,3.076
19052,1352853322.7589998,9351800,37684,-18100,1504.839,825.454,3.028,3.022
19070,1352853322.793,9351800,37672,-18110,1504.976,798.8380000000001,2.975,3.0439999999999996
19088,1352853322.833,9351800,37626,-18106,1505.2060000000001,793.803,2.931,2.9730000000000003
19106,1352853322.872,9351800,37587,-18106,1505.649,829.5989999999999,2.915,2.931
19124,1352853322.91,9351800,37541,-18100,1505.8770000000002,906.895,2.958,2.9410000000000003
19142,1352853322.948,9351800,37489,-18094,1505.869,956.2080000000001,2.99,2.964
19160,1352853322.987,9351800,37455,-18086,1505.869,916.3639999999999,2.9739999999999998,2.9410000000000003
19178,1352853323.026,9351800,37341,-18025,1505.618,1146.516,2.891,2.907
19196,1352853323.064,9351800,37220,-17967,1505.2879999999998,1290.928,2.886,2.907
19214,1352853323.102,9351800,37161,-17918,1502.8239999999998,1390.237,2.755,2.915
19232,1352853323.138,9351800,37042,-17830,1496.005,1606.0720000000001,2.733,2.815
19250,1352853323.177,9351800,36999,-17798,1489.1660000000002,1595.29,2.7060000000000004,2.7760000000000002
19268,1352853323.216,9351800,36984,-17785,1484.089,1497.475,2.736,2.736
19286,1352853323.255,9351800,36970,-17831,1465.499,1390.384,2.8480000000000003,2.884
19304,1352853323.293,9351800,36891,-17839,1456.774,1432.308,3.116,3.0789999999999997
19322,1352853323.332,9351800,36824,-17861,1449.6760000000002,1399.5929999999998,-3.053,-3.076
19340,1352853323.369,9351800,36769,-17884,1481.51,1409.547,-2.9419999999999997,-3.0180000000000002
19358,1352853323.408,9351800,36707,-17953,1492.989,1449.578,-2.8369999999999997,-2.886
19376,1352853323.446,9351800,36654,-18010,1498.9,1485.4289999999999,-2.7260000000000004,-2.7710000000000004
19394,1352853323.484,9351800,36603,-18036,1501.755,1465.277,-2.6719999999999997,-2.725
19412,1352853323.522,9351800,36566,-18050,1503.4470000000001,1452.904,-2.7239999999999998,-2.73
19430,1352853323.564,9351800,36483,-18067,1500.174,1369.265,-2.8110000000000004,-2.753
19448,1352853323.601,9351800,36431,-18085,1500.114,1349.0839999999998,-2.761,-2.767
19466,1352853323.638,9351800,36417,-18070,1496.2920000000001,1311.99,-2.805,-2.8160000000000003
19484,1352853323.676,9351800,36388,-18095,1485.5929999999998,1266.455,-2.694,-2.7439999999999998
19502,1352853323.714,9351800,36367,-18118,1473.836,1261.745,-2.702,-2.685
19520,1352853323.757,9351800,36331,-18131,1463.8470000000002,1254.1860000000001,-2.6689999999999996,-2.668
19538,1352853323.795,9351800,36301,-18127,1457.779,1210.835,-2.6639999999999997,-2.64
19556,1352853323.833,9351800,36258,-18124,1474.1979999999999,1193.25,-2.7230000000000003,-2.7089999999999996
19574,1352853323.872,9351800,36227,-18128,1490.605,1145.152,-2.696,-2.7030000000000003
19592,1352853323.911,9351800,36217,-18125,1506.586,1120.106,-2.639,-2.7039999999999997
19610,1352853323.947,9351800,36182,-18141,1523.3470000000002,1057.269,-2.6519999999999997,-2.7119999999999997
19628,1352853323.986,9351800,36133,-18142,1537.457,1061.942,-2.741,-2.74
19646,1352853324.023,9351800,36083,-18145,1542.624,995.12,-2.742,-2.7739999999999996
19664,1352853324.06,9351800,36056,-18145,1546.734,949.069,-2.674,-2.718
19682,1352853324.097,9351800,36027,-18150,1547.0439999999999,962.6210000000001,-2.665,-2.747
19700,1352853324.132,9351800,35993,-18147,1547.036,926.563,-2.773,-2.812
19718,1352853324.171,9351800,35961,-18123,1542.101,885.529,-2.912,-2.9810000000000003
19736,1352853324.208,9351800,35916,-18078,1553.38,962.165,3.003,3.0460000000000003
19754,1352853324.2480001,9351800,35874,-18034,1568.4360000000001,1050.714,2.8789999999999996,2.932
19772,1352853324.29,9351800,35810,-17967,1565.761,1184.275,2.779,2.821
19790,1352853324.328,9351800,35749,-17930,1558.484,1234.779,2.761,2.85
19808,1352853324.3669999,9351800,35689,-17907,1556.098,1238.285,2.7969999999999997,2.892
19826,1352853324.404,9351800,35632,-17891,1578.844,1267.361,2.787,2.8680000000000003
19844,1352853324.444,9351800,35581,-17879,1593.945,1262.749,2.8280000000000003,2.923
19862,1352853324.481,9351800,35529,-17875,1585.128,1297.539,2.8280000000000003,2.925
19880,1352853324.52,9351800,35490,-17861,1575.707,1249.663,2.84,2.927
19898,1352853324.559,9351800,35463,-17853,1580.0520000000001,1241.162,2.859,2.931
19916,1352853324.595,9351800,35431,-17850,1583.504,1227.191,2.8819999999999997,2.943
19934,1352853324.6330001,9351800,35379,-17847,1582.935,1240.0639999999999,2.8989999999999996,2.9160000000000004
19952,1352853324.672,9351800,35320,-17832,1592.392,1260.306,2.9360000000000004,2.9560000000000004
19970,1352853324.712,9351800,35257,-17828,1601.654,1302.0539999999999,3.043,3.0639999999999996
19988,1352853324.753,9351800,35206,-17843,1590.41,1361.501,3.031,3.0789999999999997
20006,1352853324.793,9351800,35162,-17857,1579.851,1348.391,3.0389999999999997,3.133
20024,1352853324.8339999,9351800,35144,-17855,1565.4470000000001,1223.601,2.911,2.9939999999999998
20042,1352853324.872,9351800,35136,-17847,1554.2579999999998,1135.9260000000002,2.827,2.906
20061,1352853324.912,9351800,35081,-17839,1569.154,1125.49,2.838,2.883
20080,1352853324.949,9351800,35045,-17833,1578.364,1079.05,2.8310000000000004,2.878
20099,1352853324.987,9351800,35030,-17801,1586.9920000000002,1065.893,2.79,2.866
20118,1352853325.033,9351800,34940,-17804,1612.1570000000002,1074.557,2.9160000000000004,2.925
20137,1352853325.073,9351800,34869,-17817,1616.5410000000002,1099.95,2.9730000000000003,2.972
20156,1352853325.111,9351800,34818,-17835,1619.151,1052.522,3.043,3.008
20175,1352853325.15,9351800,34793,-17812,1611.408,1049.54,2.9389999999999996,2.989
20194,1352853325.189,9351800,34765,-17820,1604.8729999999998,971.38,2.972,2.9789999999999996
20213,1352853325.228,9351800,34748,-17817,1595.18,929.783,2.9610000000000003,2.9730000000000003
20232,1352853325.266,9351800,34702,-17816,1590.2179999999998,915.794,2.98,2.9530000000000003
20252,1352853325.304,9351800,34690,-17815,1577.602,914.327,2.842,2.935
20272,1352853325.345,9351800,34618,-17805,1575.605,959.966,2.843,2.918
20292,1352853325.38,9351800,34578,-17812,1573.362,914.7389999999999,2.8569999999999998,2.9360000000000004
20312,1352853325.418,9351800,34538,-17801,1588.112,950.61,2.801,2.8339999999999996
20332,1352853325.454,9351800,34504,-17799,1597.415,960.192,2.78,2.767
20352,1352853325.49,9351800,34460,-17804,1590.864,905.8430000000001,2.839,2.765
20372,1352853325.526,9351800,34394,-17812,1585.8270000000002,907.211,2.792,2.804
20392,1352853325.564,9351800,34354,-17820,1579.415,977.518,2.7560000000000002,2.8080000000000003
20412,1352853325.6,9351800,34305,-17821,1572.424,955.0169999999999,2.742,2.827
20432,1352853325.635,9351800,34268,-17810,1565.0610000000001,926.1389999999999,2.764,2.827
20452,1352853325.674,9351800,34229,-17800,1564.106,943.44,2.799,2.866
20472,1352853325.715,9351800,34196,-17788,1563.276,957.91,2.7889999999999997,2.892
20492,1352853325.753,9351800,34158,-17783,1563.746,995.916,2.785,2.8960000000000004
20512,1352853325.793,9351800,34131,-17794,1565.1760000000002,925.456,2.7910000000000004,2.925
20532,1352853325.828,9351800,34102,-17780,1562.724,915.9630000000001,2.907,2.9939999999999998
20552,1352853325.8639998,9351800,34083,-17797,1553.2979999999998,846.01,3.002,3.033
20572,1352853325.901,9351800,34066,-17805,1544.785,782.1310000000001,3.053,3.048
20593,1352853325.939,9351800,34033,-17799,1537.295,855.0039999999999,3.069,3.037
20614,1352853325.978,9351800,33993,-17771,1528.315,927.582,2.9360000000000004,2.95
20635,1352853326.019,9351800,33912,-17778,1549.779,1119.6860000000001,2.9160000000000004,3.012
20656,1352853326.06,9351800,33837,-17786,1563.787,1243.029,2.912,3.0069999999999997
20677,1352853326.098,9351800,33814,-17755,1561.275,1122.193,2.7969999999999997,2.964
20698,1352853326.137,9351800,33752,-17730,1557.376,1226.505,2.8110000000000004,2.9360000000000004
20719,1352853326.176,9351800,33707,-17717,1553.759,1197.641,2.862,2.925
20742,1352853326.215,9351800,33654,-17691,1556.888,1240.5610000000001,2.804,2.886
20765,1352853326.257,9351800,33608,-17659,1557.494,1249.846,2.8280000000000003,2.846
20788,1352853326.296,9351800,33568,-17675,1551.763,1148.973,2.839,2.875
20811,1352853326.335,9351800,33524,-17688,1541.006,1153.5839999999998,2.8289999999999997,2.878
20834,1352853326.372,9351800,33497,-17704,1528.681,1118.692,2.872,2.9019999999999997
20856,1352853326.409,9351800,33434,-17697,1547.2120000000002,1133.218,2.886,2.8689999999999998
20878,1352853326.451,9351800,33355,-17677,1543.692,1193.03,2.82,2.878
20900,1352853326.4919999,9351800,33323,-17668,1541.585,1129.661,2.8160000000000003,2.915
20922,1352853326.53,9351800,33284,-17664,1539.521,1187.238,2.758,2.891
20944,1352853326.567,9351800,33233,-17635,1540.8370000000002,1195.0910000000001,2.6839999999999997,2.812
20966,1352853326.605,9351800,33178,-17631,1542.631,1195.1019999999999,2.752,2.84
20988,1352853326.644,9351800,33139,-17611,1545.973,1137.782,2.755,2.864
21010,1352853326.682,9351800,33106,-17601,1544.235,1154.803,2.72,2.8169999999999997
21032,1352853326.72,9351800,33083,-17583,1542.486,1157.935,2.72,2.813
21054,1352853326.7589998,9351800,33058,-17580,1559.57,1122.269,2.766,2.844
21076,1352853326.796,9351800,33040,-17574,1557.797,1088.506,2.778,2.853
21098,1352853326.833,9351800,33022,-17571,1554.875,1033.078,2.8369999999999997,2.8760000000000003
21120,1352853326.872,9351800,32982,-17563,1547.924,1070.9489999999998,2.815,2.853
21142,1352853326.91,9351800,32946,-17564,1541.305,1005.3919999999999,2.7739999999999996,2.8480000000000003
21164,1352853326.95,9351800,32914,-17563,1538.1629999999998,982.0980000000001,2.767,2.8360000000000003
21186,1352853326.9889998,9351800,32861,-17565,1553.974,996.709,2.763,2.825
21208,1352853327.027,9351800,32816,-17553,1559.8670000000002,1066.779,2.764,2.793
21230,1352853327.067,9351800,32757,-17533,1552.869,1184.576,2.73,2.83
21252,1352853327.105,9351800,32698,-17528,1545.898,1199.298,2.7039999999999997,2.802
21274,1352853327.1460001,9351800,32652,-17516,1540.5770000000002,1217.895,2.6910000000000003,2.766
21296,1352853327.184,9351800,32617,-17500,1539.931,1214.535,2.685,2.739
21318,1352853327.223,9351800,32574,-17485,1538.027,1216.782,2.719,2.737
21340,1352853327.2610002,9351800,32543,-17465,1532.0970000000002,1191.499,2.707,2.759
21362,1352853327.301,9351800,32529,-17471,1531.9029999999998,1109.741,2.65,2.728
21384,1352853327.34,9351800,32286,-17391,1494.5,1497.203,2.8139999999999996,2.78
21406,1352853327.381,9351800,32227,-17387,1482.787,1474.33,2.84,2.863
21428,1352853327.421,9351800,32171,-17380,1482.826,1325.487,2.78,2.887
21450,1352853327.462,9351800,32115,-17358,1482.826,1298.93,2.763,2.9760000000000004
21472,1352853327.5010002,9351800,32101,-17366,1584.281,1334.78,2.948,2.997
21494,1352853327.5410001,9351800,32053,-17354,1584.151,1237.0430000000001,2.9360000000000004,3.017
21516,1352853327.579,9351800,32013,-17343,1584.151,1231.573,2.875,3.023
21537,1352853327.6160002,9351800,31920,-17302,1582.112,1434.6789999999999,2.787,2.8819999999999997
