,time,id,x,y,z,velocity,angle of motion,facing angle
20046,1352853324.872,9352400,44022,-21292,1501.174,1348.389,-2.702,0.0
20065,1352853324.912,9352400,44021,-21292,1497.8120000000001,1335.142,-2.6830000000000003,1.6680000000000001
20084,1352853324.949,9352400,43998,-21306,1495.065,1269.38,-2.602,-2.4
20103,1352853324.987,9352400,43964,-21341,1490.418,1250.083,-2.5140000000000002,-2.451
20122,1352853325.033,9352400,43924,-21381,1499.654,1265.62,-2.471,-2.477
20141,1352853325.073,9352400,43887,-21424,1497.432,1296.134,-2.373,-2.445
20160,1352853325.111,9352400,43854,-21470,1495.486,1348.2820000000002,-2.283,-2.371
20179,1352853325.15,9352400,43812,-21503,1489.4189999999999,1331.335,-2.323,-2.412
20198,1352853325.189,9352400,43768,-21532,1482.739,1287.8339999999998,-2.42,-2.455
20217,1352853325.228,9352400,43724,-21553,1485.3310000000001,1315.965,-2.504,-2.512
20236,1352853325.266,9352400,43666,-21578,1483.2079999999999,1313.57,-2.478,-2.4930000000000003
20256,1352853325.304,9352400,43608,-21604,1482.223,1313.615,-2.468,-2.496
20276,1352853325.345,9352400,43542,-21628,1490.6670000000001,1344.721,-2.559,-2.54
20296,1352853325.38,9352400,43504,-21663,1485.714,1339.99,-2.517,-2.529
20316,1352853325.418,9352400,43460,-21683,1488.513,1297.0510000000002,-2.559,-2.55
20336,1352853325.454,9352400,43426,-21677,1536.8529999999998,1191.4160000000002,-2.6630000000000003,-2.637
20356,1352853325.49,9352400,43391,-21695,1586.226,1168.617,-2.61,-2.696
20376,1352853325.526,9352400,43300,-21698,1566.5339999999999,1273.175,-2.798,-2.8089999999999997
20396,1352853325.564,9352400,43210,-21663,1545.536,1366.124,-3.012,-3.045
20416,1352853325.6,9352400,43135,-21565,1518.854,1440.411,2.825,2.7910000000000004
20436,1352853325.635,9352400,43094,-21535,1510.5320000000002,1424.8120000000001,2.764,2.763
20456,1352853325.674,9352400,43074,-21484,1508.891,1410.9779999999998,2.633,2.688
20476,1352853325.715,9352400,42999,-21430,1519.0410000000002,1507.82,2.557,2.65
20496,1352853325.753,9352400,42947,-21404,1512.8370000000002,1547.136,2.59,2.638
20516,1352853325.793,9352400,42874,-21375,1541.954,1623.899,2.613,2.58
20536,1352853325.828,9352400,42829,-21337,1560.757,1635.787,2.588,2.5860000000000003
20556,1352853325.8639998,9352400,42757,-21325,1554.2720000000002,1648.879,2.7039999999999997,2.645
20576,1352853325.901,9352400,42708,-21298,1545.9979999999998,1631.53,2.687,2.637
20597,1352853325.939,9352400,42663,-21368,1555.2179999999998,1556.115,2.8739999999999997,2.858
20618,1352853325.978,9352400,42653,-21319,1565.62,1531.015,2.7230000000000003,2.725
20639,1352853326.019,9352400,42644,-21355,1589.828,1360.25,2.7769999999999997,2.753
20660,1352853326.06,9352400,42593,-21343,1590.911,1386.9029999999998,2.7769999999999997,2.717
20681,1352853326.098,9352400,42558,-21348,1590.4270000000001,1356.969,2.745,2.738
20702,1352853326.137,9352400,42498,-21400,1584.8370000000002,1352.862,2.872,2.8569999999999998
20723,1352853326.176,9352400,42355,-21542,1603.66,1631.4679999999998,-3.1260000000000003,-3.125
20746,1352853326.215,9352400,42236,-21638,1621.6789999999999,1832.598,-3.02,-2.964
20769,1352853326.257,9352400,42357,-21312,1566.9,1366.715,2.813,2.798
20792,1352853326.296,9352400,42304,-21333,1565.155,1362.4279999999999,2.873,2.8819999999999997
20815,1352853326.335,9352400,42251,-21352,1584.392,1305.3,2.912,2.93
20838,1352853326.372,9352400,42191,-21424,1590.378,1333.744,3.02,3.0380000000000003
20860,1352853326.409,9352400,42138,-21461,1637.6779999999999,1390.864,3.077,3.097
20882,1352853326.451,9352400,42067,-21490,1639.068,1425.059,-3.12,3.109
20904,1352853326.4919999,9352400,42021,-21451,1625.318,1326.632,3.093,2.9989999999999997
20926,1352853326.53,9352400,42017,-21427,1627.5810000000001,1221.701,2.968,2.929
20948,1352853326.567,9352400,41991,-21389,1621.1970000000001,1137.38,2.845,2.846
20970,1352853326.605,9352400,41949,-21299,1614.875,1158.606,2.6860000000000004,2.698
20992,1352853326.644,9352400,41938,-21233,1609.764,1137.769,2.6039999999999996,2.59
21014,1352853326.682,9352400,41910,-21205,1608.004,1174.1,2.617,2.58
21036,1352853326.72,9352400,41877,-21180,1607.54,1202.588,2.536,2.5669999999999997
21058,1352853326.7589998,9352400,41835,-21153,1608.257,1158.837,2.509,2.568
21080,1352853326.796,9352400,41795,-21144,1611.3629999999998,1147.997,2.492,2.539
21102,1352853326.833,9352400,41777,-21147,1608.3,1072.586,2.525,2.5269999999999997
21124,1352853326.872,9352400,41773,-21137,1605.0220000000002,1020.712,2.489,2.48
21146,1352853326.91,9352400,41778,-21128,1604.132,891.074,2.431,2.428
21168,1352853326.95,9352400,41759,-21130,1603.457,827.745,2.438,2.432
21190,1352853326.9889998,9352400,41753,-21146,1602.9579999999999,736.095,2.4819999999999998,2.449
21212,1352853327.027,9352400,41737,-21147,1603.068,684.0310000000001,2.495,2.522
21234,1352853327.067,9352400,41466,-21150,1579.37,1122.242,2.7310000000000003,2.658
21256,1352853327.105,9352400,41379,-21128,1575.556,1092.808,2.725,2.7030000000000003
21278,1352853327.1460001,9352400,41334,-21106,1571.0529999999999,1072.004,2.718,2.717
21300,1352853327.184,9352400,41293,-21094,1565.626,1136.4080000000001,2.7689999999999997,2.773
21322,1352853327.223,9352400,41265,-21140,1564.749,974.826,-3.053,-3.074
21344,1352853327.2610002,9352400,41229,-21141,1564.74,930.553,-3.1289999999999996,-3.095
21366,1352853327.301,9352400,41138,-21129,1560.2679999999998,1096.329,-3.093,-3.1010000000000004
21388,1352853327.34,9352400,41042,-21116,1563.7,1180.624,3.105,3.139
21410,1352853327.381,9352400,40965,-21154,1560.59,1280.823,-2.9739999999999998,-2.9760000000000004
21432,1352853327.421,9352400,40903,-21207,1557.895,1405.888,-2.873,-2.86
21454,1352853327.462,9352400,40833,-21262,1565.39,1455.2839999999999,-2.767,-2.801
21476,1352853327.5010002,9352400,40772,-21289,1568.036,1448.5220000000002,-2.738,-2.821
21498,1352853327.5410001,9352400,40662,-21300,1576.652,1591.91,-2.7489999999999997,-2.8160000000000003
21520,1352853327.579,9352400,40579,-21315,1605.7160000000001,1623.8020000000001,-2.819,-2.841
21541,1352853327.6160002,9352400,40523,-21332,1616.394,1620.889,-2.872,-2.898
21562,1352853327.6560001,9352400,40478,-21311,1611.223,1558.235,-2.951,-2.932
21583,1352853327.697,9352400,40424,-21293,1606.027,1517.3329999999999,-2.947,-2.949
21604,1352853327.734,9352400,40311,-21297,1659.888,1559.349,-3.0639999999999996,-3.06
21625,1352853327.773,9352400,40201,-21303,1693.609,1641.944,-3.111,-3.097
21646,1352853327.812,9352400,40116,-21328,1713.881,1693.5,-3.074,-3.093
21667,1352853327.853,9352400,40038,-21336,1707.704,1654.957,-3.092,-3.0810000000000004
21688,1352853327.8930001,9352400,39966,-21281,1698.079,1620.8020000000001,3.043,3.075
21709,1352853327.932,9352400,39959,-21205,1684.605,1473.8120000000001,2.957,2.946
21730,1352853327.9689999,9352400,39947,-21119,1670.033,1331.24,2.839,2.918
21751,1352853328.01,9352400,39903,-21070,1660.71,1375.773,2.783,2.8510000000000004
21772,1352853328.052,9352400,39846,-21052,1653.861,1389.2910000000002,2.767,2.833
21793,1352853328.088,9352400,39797,-21002,1642.8020000000001,1474.0620000000001,2.735,2.7460000000000004
21814,1352853328.1260002,9352400,39753,-20959,1637.51,1479.1870000000001,2.613,2.655
21835,1352853328.164,9352400,39677,-20946,1639.61,1507.7089999999998,2.634,2.701
21856,1352853328.202,9352400,39613,-20958,1646.326,1503.9379999999999,2.68,2.763
21877,1352853328.2389998,9352400,39553,-20935,1679.71,1511.0,2.6689999999999996,2.735
21898,1352853328.279,9352400,39514,-20874,1679.421,1546.721,2.668,2.736
21919,1352853328.318,9352400,39458,-20865,1682.747,1510.4720000000002,2.727,2.742
21940,1352853328.358,9352400,39387,-20867,1721.362,1517.0729999999999,2.7089999999999996,2.742
21961,1352853328.3960001,9352400,39342,-20862,1735.445,1490.365,2.793,2.7889999999999997
21982,1352853328.434,9352400,39295,-20851,1744.261,1468.471,2.775,2.7680000000000002
22003,1352853328.474,9352400,39232,-20840,1739.094,1434.5870000000002,2.8289999999999997,2.847
22024,1352853328.514,9352400,39189,-20827,1731.7879999999998,1304.089,2.835,2.9
22045,1352853328.554,9352400,39105,-20808,1790.753,1443.642,2.8569999999999998,2.863
22066,1352853328.598,9352400,39060,-20787,1812.244,1390.753,2.81,2.804
22087,1352853328.6360002,9352400,39007,-20762,1843.5520000000001,1413.156,2.762,2.803
22108,1352853328.677,9352400,38964,-20747,1855.995,1438.717,2.733,2.793
22129,1352853328.716,9352400,38944,-20743,1835.5179999999998,1395.9,2.758,2.7510000000000003
22150,1352853328.754,9352400,38899,-20724,1827.945,1395.861,2.73,2.7319999999999998
22171,1352853328.7910001,9352400,38856,-20718,1827.7379999999998,1340.234,2.7239999999999998,2.702
22192,1352853328.829,9352400,38795,-20698,1847.5710000000001,1370.634,2.699,2.682
22213,1352853328.865,9352400,38739,-20681,1854.944,1418.0420000000001,2.6660000000000004,2.679
22234,1352853328.905,9352400,38692,-20661,1850.649,1413.721,2.6489999999999996,2.7239999999999998
22255,1352853328.945,9352400,38645,-20641,1850.565,1411.2179999999998,2.647,2.714
22276,1352853328.984,9352400,38602,-20612,1850.411,1307.415,2.6919999999999997,2.779
22297,1352853329.025,9352400,38571,-20606,1847.463,1270.128,2.6830000000000003,2.775
22318,1352853329.064,9352400,38538,-20590,1844.902,1233.106,2.736,2.8
22339,1352853329.101,9352400,38521,-20572,1874.335,1222.78,2.698,2.736
22360,1352853329.14,9352400,38458,-20557,1897.509,1302.712,2.634,2.68
22381,1352853329.178,9352400,38412,-20558,1897.602,1306.492,2.7110000000000003,2.73
22402,1352853329.218,9352400,38345,-20583,1896.399,1282.51,2.741,2.853
22423,1352853329.257,9352400,38291,-20585,1891.626,1251.472,2.785,2.889
22444,1352853329.299,9352400,38235,-20564,1887.474,1292.0330000000001,2.7319999999999998,2.8680000000000003
22465,1352853329.341,9352400,38167,-20594,1878.765,1356.846,2.975,3.015
22486,1352853329.379,9352400,38113,-20603,1872.346,1397.0839999999998,3.0210000000000004,3.02
22507,1352853329.418,9352400,38072,-20610,1870.172,1379.402,-3.125,3.108
22528,1352853329.456,9352400,38015,-20637,1868.624,1387.912,-3.057,-3.117
22549,1352853329.495,9352400,37959,-20656,1866.201,1406.142,-3.055,-3.074
22570,1352853329.533,9352400,37926,-20637,1863.1689999999999,1467.747,-3.049,-3.0669999999999997
22591,1352853329.572,9352400,37864,-20633,1854.94,1421.8270000000002,-3.0410000000000004,-3.116
22612,1352853329.613,9352400,37791,-20608,1847.359,1365.182,3.1210000000000004,-3.123
22633,1352853329.65,9352400,37747,-20619,1838.244,1245.191,3.0589999999999997,3.1319999999999997
22653,1352853329.688,9352400,37708,-20645,1833.316,1126.013,3.134,-3.0669999999999997
22673,1352853329.727,9352400,37674,-20657,1828.136,1095.431,3.13,-3.0989999999999998
22693,1352853329.763,9352400,37647,-20646,1845.986,1040.808,3.07,3.123
22713,1352853329.801,9352400,37617,-20646,1852.2160000000001,990.919,3.077,3.0860000000000003
22733,1352853329.839,9352400,37596,-20655,1846.711,1012.6030000000001,3.112,3.1010000000000004
22753,1352853329.8760002,9352400,37571,-20662,1840.6570000000002,964.934,-3.0869999999999997,-3.108
22773,1352853329.914,9352400,37524,-20662,1832.618,994.2919999999999,3.1289999999999996,3.1060000000000003
22793,1352853329.951,9352400,37453,-20654,1865.5520000000001,1106.493,3.045,3.015
22813,1352853329.9889998,9352400,37409,-20635,1884.9589999999998,1114.923,2.9530000000000003,2.988
22833,1352853330.03,9352400,37360,-20608,1876.695,1153.384,2.885,2.971
22853,1352853330.067,9352400,37312,-20595,1869.134,1146.5919999999999,2.9010000000000002,2.9219999999999997
22873,1352853330.109,9352400,37244,-20579,1862.701,1244.982,2.9019999999999997,2.9419999999999997
22893,1352853330.147,9352400,37178,-20562,1855.9089999999999,1346.5339999999999,2.866,2.877
22913,1352853330.184,9352400,37137,-20564,1845.661,1328.229,2.844,2.8939999999999997
22933,1352853330.223,9352400,37086,-20541,1894.3470000000002,1316.92,2.8089999999999997,2.8739999999999997
22953,1352853330.26,9352400,37032,-20519,1897.6760000000002,1296.7910000000002,2.762,2.832
22973,1352853330.298,9352400,36999,-20527,1897.148,1281.486,2.898,2.885
22993,1352853330.335,9352400,36965,-20522,1896.1270000000002,1230.2269999999999,2.838,2.8510000000000004
23013,1352853330.371,9352400,36936,-20501,1886.6229999999998,1223.141,2.701,2.745
23033,1352853330.408,9352400,36913,-20483,1876.717,1174.98,2.65,2.7260000000000004
23053,1352853330.446,9352400,36881,-20479,1869.592,1105.621,2.736,2.755
23073,1352853330.484,9352400,36824,-20472,1864.2820000000002,1173.687,2.7710000000000004,2.775
23093,1352853330.52,9352400,36788,-20478,1850.5320000000002,1180.711,2.7710000000000004,2.825
23113,1352853330.558,9352400,36756,-20473,1836.808,1175.245,2.659,2.8
23133,1352853330.596,9352400,36715,-20469,1823.192,1215.1789999999999,2.697,2.832
23153,1352853330.6330001,9352400,36626,-20521,1794.172,1259.119,2.9389999999999996,2.958
23173,1352853330.67,9352400,36506,-20545,1763.588,1414.565,3.091,3.06
23193,1352853330.712,9352400,36440,-20542,1745.565,1420.951,3.108,-3.138
23213,1352853330.75,9352400,36352,-20553,1724.977,1463.004,-3.133,-3.1310000000000002
23233,1352853330.788,9352400,36291,-20605,1705.434,1431.5420000000001,-2.943,-3.028
23253,1352853330.827,9352400,36234,-20664,1686.665,1438.13,-2.8739999999999997,-2.957
23273,1352853330.865,9352400,36180,-20692,1679.1860000000001,1479.37,-2.867,-2.909
23293,1352853330.903,9352400,36157,-20728,1694.037,1403.4229999999998,-2.799,-2.865
23313,1352853330.94,9352400,36107,-20735,1692.352,1361.1,-2.77,-2.8819999999999997
23333,1352853330.981,9352400,36083,-20743,1690.9489999999998,1298.114,-2.765,-2.912
23353,1352853331.02,9352400,36051,-20731,1688.4289999999999,1239.813,-2.931,-2.988
23373,1352853331.059,9352400,36007,-20743,1676.142,1240.19,-2.957,-3.0180000000000002
23393,1352853331.098,9352400,35965,-20742,1665.78,1182.286,-2.987,-2.988
23413,1352853331.138,9352400,35928,-20749,1650.612,1169.597,-3.012,-3.0060000000000002
23432,1352853331.177,9352400,35907,-20742,1636.421,1061.143,-2.986,-2.989
23451,1352853331.214,9352400,35890,-20740,1624.957,1015.4760000000001,-2.957,-2.947
23470,1352853331.2510002,9352400,35847,-20738,1640.376,959.278,-2.975,-2.943
23489,1352853331.288,9352400,35846,-20754,1645.3629999999998,973.31,-2.925,-2.937
23508,1352853331.327,9352400,35832,-20743,1675.7089999999998,944.689,-2.9560000000000004,-2.966
23527,1352853331.365,9352400,35808,-20754,1684.9270000000001,903.7439999999999,-2.9360000000000004,-2.958
23546,1352853331.403,9352400,35775,-20782,1669.874,948.326,-2.944,-2.947
23565,1352853331.45,9352400,35781,-20808,1675.0439999999999,887.2,-2.864,-2.9210000000000003
23584,1352853331.49,9352400,35757,-20825,1678.203,893.572,-2.8489999999999998,-2.903
23603,1352853331.5310001,9352400,35716,-20849,1666.977,920.0010000000001,-2.852,-2.895
23622,1352853331.568,9352400,35722,-20876,1662.605,908.197,-2.84,-2.955
23641,1352853331.606,9352400,35685,-20898,1657.89,938.7510000000001,-2.792,-2.96
23660,1352853331.644,9352400,35603,-20934,1688.3310000000001,1017.6360000000001,-2.734,-2.8989999999999996
23679,1352853331.682,9352400,35527,-20962,1700.8470000000002,1090.1480000000001,-2.7680000000000002,-2.859
23698,1352853331.722,9352400,35498,-20979,1695.34,1107.553,-2.752,-2.8510000000000004
23717,1352853331.762,9352400,35469,-20990,1689.817,1161.021,-2.81,-2.819
23736,1352853331.798,9352400,35453,-21001,1678.625,1167.172,-2.792,-2.7910000000000004
23755,1352853331.838,9352400,35378,-21041,1673.026,1290.3310000000001,-2.739,-2.7910000000000004
23774,1352853331.875,9352400,35349,-21062,1665.986,1345.819,-2.667,-2.7889999999999997
23793,1352853331.914,9352400,35321,-21086,1657.4479999999999,1361.1429999999998,-2.688,-2.7319999999999998
23812,1352853331.953,9352400,35304,-21107,1648.664,1413.213,-2.6660000000000004,-2.752
23831,1352853331.9889998,9352400,35276,-21154,1639.672,1443.5539999999999,-2.6639999999999997,-2.6860000000000004
23850,1352853332.026,9352400,35251,-21182,1631.75,1428.83,-2.6719999999999997,-2.679
23869,1352853332.064,9352400,35232,-21232,1624.769,1375.777,-2.6719999999999997,-2.613
23888,1352853332.103,9352400,35226,-21267,1618.819,1290.76,-2.628,-2.6060000000000003
23907,1352853332.1430001,9352400,35246,-21349,1666.976,1310.702,-2.506,-2.456
23926,1352853332.184,9352400,35280,-21420,1698.7879999999998,1339.6979999999999,-2.4130000000000003,-2.3680000000000003
23945,1352853332.225,9352400,35286,-21490,1694.624,1355.986,-2.299,-2.25
23964,1352853332.262,9352400,35272,-21528,1683.9479999999999,1359.604,-2.2359999999999998,-2.208
23982,1352853332.298,9352400,35264,-21560,1670.763,1361.25,-2.188,-2.125
24000,1352853332.336,9352400,35256,-21580,1660.151,1350.526,-2.083,-2.089
24018,1352853332.3739998,9352400,35221,-21622,1651.88,1346.7120000000002,-2.069,-2.102
24036,1352853332.411,9352400,35208,-21644,1642.7420000000002,1367.717,-2.065,-2.039
24054,1352853332.449,9352400,35195,-21686,1630.865,1322.344,-2.013,-1.965
24072,1352853332.487,9352400,35181,-21710,1616.289,1268.694,-1.919,-1.839
24090,1352853332.525,9352400,35241,-21728,1610.7089999999998,1138.948,-1.689,-1.714
24108,1352853332.567,9352400,35265,-21780,1637.1589999999999,1126.453,-1.6159999999999999,-1.669
24126,1352853332.6039999,9352400,35286,-21811,1654.6370000000002,1071.737,-1.579,-1.645
24144,1352853332.641,9352400,35296,-21853,1661.101,1065.942,-1.588,-1.6059999999999999
24162,1352853332.681,9352400,35286,-21844,1651.146,1000.6460000000001,-1.598,-1.6230000000000002
24181,1352853332.718,9352400,35290,-21855,1647.539,998.185,-1.536,-1.61
24200,1352853332.756,9352400,35292,-21861,1642.714,941.2239999999999,-1.5490000000000002,-1.6119999999999999
24219,1352853332.795,9352400,35315,-21889,1638.8829999999998,872.4110000000001,-1.531,-1.531
24238,1352853332.833,9352400,35340,-21905,1631.453,874.2560000000001,-1.382,-1.419
24257,1352853332.8739998,9352400,35341,-21940,1634.07,804.063,-1.4180000000000001,-1.4409999999999998
24276,1352853332.911,9352400,35327,-21940,1634.4479999999999,749.551,-1.455,-1.4780000000000002
24295,1352853332.951,9352400,35313,-21955,1634.2720000000002,721.3789999999999,-1.4780000000000002,-1.508
24314,1352853332.99,9352400,35305,-21983,1634.88,750.4639999999999,-1.51,-1.538
24333,1352853333.028,9352400,35300,-21990,1635.493,714.475,-1.501,-1.541
24352,1352853333.065,9352400,35278,-21998,1636.886,738.245,-1.581,-1.584
24371,1352853333.102,9352400,35282,-22019,1636.536,722.015,-1.632,-1.6119999999999999
24390,1352853333.142,9352400,35285,-22050,1636.484,698.222,-1.608,-1.61
24409,1352853333.181,9352400,35284,-22049,1635.906,688.1519999999999,-1.607,-1.608
24428,1352853333.217,9352400,35276,-22053,1635.425,663.3919999999999,-1.6440000000000001,-1.578
24447,1352853333.253,9352400,35289,-22078,1634.156,743.4780000000001,-1.5630000000000002,-1.569
24466,1352853333.2910001,9352400,35295,-22120,1633.895,825.3380000000001,-1.505,-1.558
24485,1352853333.33,9352400,35269,-22123,1633.4679999999998,756.155,-1.571,-1.6280000000000001
24504,1352853333.368,9352400,35247,-22124,1633.473,627.269,-1.6869999999999998,-1.72
24523,1352853333.405,9352400,35234,-22108,1633.234,632.69,-1.696,-1.761
24542,1352853333.443,9352400,35228,-22114,1633.349,617.7040000000001,-1.775,-1.8159999999999998
24561,1352853333.48,9352400,35210,-22125,1633.259,638.955,-1.8019999999999998,-1.849
24580,1352853333.519,9352400,35213,-22129,1633.4089999999999,610.878,-1.848,-1.847
24599,1352853333.558,9352400,35205,-22145,1633.967,667.05,-1.882,-1.8159999999999998
24618,1352853333.599,9352400,35189,-22149,1634.5479999999998,711.413,-1.906,-1.8519999999999999
24637,1352853333.6330001,9352400,35207,-22145,1635.381,757.4680000000001,-1.8530000000000002,-1.837
24656,1352853333.669,9352400,35216,-22151,1635.8210000000001,734.698,-1.829,-1.854
24675,1352853333.706,9352400,35217,-22144,1635.0710000000001,685.937,-1.82,-1.865
24694,1352853333.744,9352400,35225,-22156,1635.425,729.27,-1.844,-1.857
24713,1352853333.7810001,9352400,35220,-22143,1634.559,708.3939999999999,-1.834,-1.837
24732,1352853333.816,9352400,35206,-22130,1633.138,647.298,-1.839,-1.821
24751,1352853333.852,9352400,35210,-22099,1631.93,613.556,-1.7209999999999999,-1.766
