,time,id,x,y,z,velocity,angle of motion,facing angle
516,1352853194.638,9331400,-36581,-3533,1769.862,1368.6760000000002,-0.031,0.0
520,1352853194.672,9331400,-36581,-3532,1765.48,1366.1979999999999,-0.021,1.3019999999999998
524,1352853194.707,9331400,-36535,-3527,1763.4379999999999,1303.838,0.063,0.48
528,1352853194.74,9331400,-36502,-3524,1761.725,1222.401,0.135,0.249
532,1352853194.775,9331400,-36462,-3514,1760.03,1234.111,0.16699999999999998,0.213
536,1352853194.81,9331400,-36419,-3492,1756.925,1234.088,0.19399999999999998,0.215
540,1352853194.8439999,9331400,-36371,-3484,1754.509,1171.711,0.21100000000000002,0.195
544,1352853194.8769999,9331400,-36339,-3489,1752.317,1119.948,0.215,0.171
548,1352853194.91,9331400,-36319,-3491,1750.374,1054.478,0.23600000000000002,0.174
552,1352853194.944,9331400,-36281,-3483,1748.9520000000002,1040.493,0.17,0.154
556,1352853194.98,9331400,-36229,-3474,1745.415,999.7489999999999,0.159,0.11699999999999999
560,1352853195.014,9331400,-36191,-3475,1742.049,1004.674,0.155,0.111
564,1352853195.049,9331400,-36137,-3470,1740.079,1033.016,0.109,0.11599999999999999
568,1352853195.089,9331400,-36078,-3468,1738.095,1074.33,0.091,0.09
572,1352853195.125,9331400,-36027,-3456,1733.44,1152.606,0.129,0.135
576,1352853195.16,9331400,-35995,-3436,1728.7879999999998,1150.305,0.121,0.168
580,1352853195.194,9331400,-35947,-3435,1722.112,1193.037,0.188,0.183
584,1352853195.227,9331400,-35899,-3422,1714.9129999999998,1259.015,0.23600000000000002,0.22699999999999998
588,1352853195.26,9331400,-35853,-3411,1709.682,1295.871,0.203,0.235
592,1352853195.295,9331400,-35809,-3400,1705.5410000000002,1217.807,0.231,0.256
596,1352853195.33,9331400,-35784,-3394,1702.364,1187.558,0.237,0.278
600,1352853195.3660002,9331400,-35756,-3384,1699.701,1112.646,0.196,0.221
604,1352853195.403,9331400,-35671,-3368,1728.586,1178.691,0.265,0.278
608,1352853195.439,9331400,-35591,-3353,1726.4879999999998,1261.547,0.255,0.273
612,1352853195.477,9331400,-35538,-3342,1722.942,1240.286,0.20600000000000002,0.201
616,1352853195.513,9331400,-35499,-3336,1717.029,1223.9669999999999,0.19399999999999998,0.16899999999999998
620,1352853195.549,9331400,-35467,-3333,1711.0439999999999,1176.434,0.16899999999999998,0.126
624,1352853195.585,9331400,-35394,-3379,1706.605,1308.214,-0.107,-0.047
628,1352853195.621,9331400,-35348,-3414,1701.4,1360.276,-0.239,-0.113
632,1352853195.658,9331400,-35290,-3429,1704.485,1371.649,-0.22,-0.153
636,1352853195.695,9331400,-35233,-3438,1706.263,1368.825,-0.16899999999999998,-0.19399999999999998
640,1352853195.731,9331400,-35172,-3445,1703.264,1389.967,-0.15,-0.21600000000000003
644,1352853195.766,9331400,-35137,-3441,1699.879,1271.231,-0.183,-0.21899999999999997
648,1352853195.805,9331400,-35080,-3433,1698.4920000000002,1246.045,-0.214,-0.237
652,1352853195.839,9331400,-35039,-3449,1698.5439999999999,1256.121,-0.304,-0.239
656,1352853195.8739998,9331400,-34990,-3468,1698.5439999999999,1241.993,-0.363,-0.244
660,1352853195.909,9331400,-34947,-3487,1698.5439999999999,1198.664,-0.419,-0.248
664,1352853195.944,9331400,-34913,-3501,1698.5439999999999,1190.632,-0.45299999999999996,-0.24
668,1352853195.98,9331400,-34846,-3432,1715.964,1280.583,-0.287,-0.299
672,1352853196.016,9331400,-34806,-3368,1734.594,1259.132,-0.214,-0.25
676,1352853196.051,9331400,-34748,-3368,1808.086,1315.24,-0.213,-0.23600000000000002
680,1352853196.086,9331400,-34703,-3363,1847.842,1282.2069999999999,-0.213,-0.20800000000000002
684,1352853196.122,9331400,-34669,-3357,1848.621,1220.3110000000001,-0.20600000000000002,-0.203
688,1352853196.158,9331400,-34627,-3365,1848.621,1149.778,-0.255,-0.226
692,1352853196.194,9331400,-34596,-3362,1855.2820000000002,1160.127,-0.179,-0.204
696,1352853196.228,9331400,-34572,-3361,1857.1129999999998,1127.4660000000001,-0.16399999999999998,-0.195
700,1352853196.265,9331400,-34544,-3352,1857.9189999999999,1126.711,-0.187,-0.207
704,1352853196.299,9331400,-34501,-3324,1879.8129999999999,1114.942,-0.17,-0.17300000000000001
708,1352853196.336,9331400,-34461,-3338,1879.734,1105.8519999999999,-0.16399999999999998,-0.156
712,1352853196.37,9331400,-34324,-3288,1884.1770000000001,1249.16,-0.07400000000000001,-0.201
716,1352853196.405,9331400,-34279,-3285,1884.0629999999999,1246.905,-0.063,-0.21
720,1352853196.442,9331400,-34232,-3282,1883.9470000000001,1215.26,-0.10300000000000001,-0.20800000000000002
724,1352853196.476,9331400,-34195,-3285,1894.0479999999998,1188.296,-0.12300000000000001,-0.21600000000000003
728,1352853196.515,9331400,-34153,-3291,1894.2079999999999,1102.394,-0.14,-0.195
732,1352853196.55,9331400,-34116,-3295,1894.2079999999999,1067.583,-0.127,-0.19899999999999998
736,1352853196.585,9331400,-34079,-3299,1894.2079999999999,1034.232,-0.10300000000000001,-0.20800000000000002
740,1352853196.62,9331400,-34041,-3301,1894.2079999999999,1016.8760000000001,-0.11199999999999999,-0.188
744,1352853196.654,9331400,-33998,-3249,1888.589,1151.174,0.042,-0.11800000000000001
748,1352853196.69,9331400,-33958,-3230,1883.975,1124.671,-0.015,-0.054000000000000006
752,1352853196.726,9331400,-33933,-3230,1879.7520000000002,1039.281,-0.033,-0.055999999999999994
757,1352853196.7610002,9331400,-33801,-2904,1869.693,1635.918,0.8859999999999999,0.225
762,1352853196.798,9331400,-33752,-2870,1863.692,1617.5520000000001,0.789,0.23600000000000002
767,1352853196.835,9331400,-33707,-2796,1862.602,1586.504,0.726,0.29
772,1352853196.871,9331400,-33698,-2755,1858.896,1651.68,0.677,0.337
777,1352853196.907,9331400,-33706,-2734,1846.451,1603.6770000000001,0.624,0.35600000000000004
782,1352853196.94,9331400,-33669,-2710,1832.878,1633.434,0.522,0.392
787,1352853196.978,9331400,-33624,-2671,1817.1629999999998,1583.036,0.528,0.45
792,1352853197.013,9331400,-33605,-2635,1798.204,1587.885,0.59,0.47700000000000004
797,1352853197.05,9331400,-33575,-2593,1789.6870000000001,1501.0739999999998,0.578,0.516
802,1352853197.087,9331400,-33543,-2564,1783.29,1362.648,0.544,0.537
807,1352853197.1239998,9331400,-33515,-2534,1776.4820000000002,1283.107,0.557,0.5479999999999999
812,1352853197.161,9331400,-33479,-2451,1787.043,1359.759,0.655,0.611
817,1352853197.196,9331400,-33443,-2394,1800.651,1357.9520000000002,0.628,0.615
822,1352853197.235,9331400,-33398,-2375,1793.2020000000002,1321.4189999999999,0.618,0.63
827,1352853197.27,9331400,-33361,-2356,1786.121,1294.644,0.591,0.643
832,1352853197.305,9331400,-33318,-2334,1780.101,1317.338,0.618,0.622
837,1352853197.341,9331400,-33305,-2308,1778.085,1277.3239999999998,0.607,0.6559999999999999
842,1352853197.375,9331400,-33283,-2275,1775.739,1206.877,0.65,0.645
847,1352853197.41,9331400,-33273,-2266,1773.506,1046.5539999999999,0.644,0.653
852,1352853197.444,9331400,-33232,-2248,1764.8220000000001,1071.618,0.599,0.614
857,1352853197.4789999,9331400,-33203,-2235,1756.6370000000002,997.049,0.621,0.614
862,1352853197.516,9331400,-33175,-2205,1755.1760000000002,997.195,0.603,0.5820000000000001
867,1352853197.553,9331400,-33128,-2180,1749.568,1027.987,0.5479999999999999,0.536
872,1352853197.587,9331400,-33103,-2166,1744.385,991.314,0.456,0.486
877,1352853197.6230001,9331400,-33050,-2148,1735.493,992.6189999999999,0.46399999999999997,0.49
882,1352853197.661,9331400,-33020,-2140,1727.276,931.33,0.376,0.42100000000000004
887,1352853197.697,9331400,-32977,-2122,1717.52,956.4689999999999,0.38299999999999995,0.381
892,1352853197.733,9331400,-32935,-2105,1708.4820000000002,960.9889999999999,0.406,0.433
897,1352853197.77,9331400,-32910,-2095,1699.287,969.179,0.433,0.434
902,1352853197.807,9331400,-32872,-2087,1697.389,1009.1039999999999,0.392,0.43
907,1352853197.843,9331400,-32841,-2087,1695.8270000000002,1010.507,0.319,0.405
912,1352853197.88,9331400,-32813,-2086,1693.398,983.488,0.28600000000000003,0.35
917,1352853197.915,9331400,-32798,-2060,1725.336,974.7260000000001,0.33799999999999997,0.345
922,1352853197.953,9331400,-32751,-2008,1744.3129999999999,1057.0230000000001,0.45799999999999996,0.449
927,1352853197.9889998,9331400,-32716,-1976,1757.6860000000001,1081.403,0.47600000000000003,0.462
932,1352853198.025,9331400,-32652,-1951,1756.4129999999998,1190.849,0.486,0.434
937,1352853198.059,9331400,-32589,-1928,1754.766,1180.8419999999999,0.451,0.434
942,1352853198.0939999,9331400,-32527,-1905,1748.556,1162.361,0.449,0.484
947,1352853198.129,9331400,-32496,-1883,1741.251,1191.573,0.473,0.515
952,1352853198.165,9331400,-32483,-1873,1733.905,1109.032,0.493,0.555
957,1352853198.199,9331400,-32474,-1885,1786.862,1066.147,0.47600000000000003,0.516
962,1352853198.235,9331400,-32451,-1837,1772.6870000000001,1024.92,0.629,0.629
967,1352853198.27,9331400,-32455,-1790,1758.335,900.985,0.773,0.777
972,1352853198.307,9331400,-32394,-1777,1756.9029999999998,932.1089999999999,0.768,0.6890000000000001
977,1352853198.343,9331400,-32361,-1743,1784.766,934.6310000000001,0.763,0.728
982,1352853198.3760002,9331400,-32335,-1718,1808.2520000000002,932.2819999999999,0.807,0.764
987,1352853198.41,9331400,-32319,-1680,1826.703,902.143,0.852,0.779
992,1352853198.447,9331400,-32311,-1644,1862.9820000000002,844.485,0.889,0.809
997,1352853198.484,9331400,-32181,-1653,1863.54,999.617,0.5429999999999999,0.563
1002,1352853198.519,9331400,-32118,-1655,1855.265,1129.854,0.46,0.431
1007,1352853198.556,9331400,-32094,-1636,1857.713,1122.056,0.478,0.419
1012,1352853198.59,9331400,-32068,-1615,1859.9479999999999,1109.846,0.51,0.419
1017,1352853198.6269999,9331400,-32050,-1597,1861.6129999999998,1078.733,0.518,0.451
1022,1352853198.663,9331400,-31962,-1618,1853.043,1193.454,0.37,0.33799999999999997
1027,1352853198.703,9331400,-31845,-1647,1839.75,1280.147,0.2,0.23600000000000002
1032,1352853198.738,9331400,-31789,-1641,1836.348,1340.8529999999998,0.17600000000000002,0.21
1037,1352853198.776,9331400,-31731,-1634,1833.4679999999998,1385.425,0.207,0.20199999999999999
1042,1352853198.812,9331400,-31690,-1624,1830.0120000000002,1348.775,0.218,0.21600000000000003
1047,1352853198.846,9331400,-31589,-1627,1822.729,1406.83,0.138,0.14400000000000002
1052,1352853198.88,9331400,-31559,-1604,1823.744,1412.067,0.235,0.19699999999999998
1057,1352853198.913,9331400,-31533,-1572,1824.5379999999998,1417.335,0.29600000000000004,0.254
1062,1352853198.946,9331400,-31488,-1541,1821.6689999999999,1457.886,0.29600000000000004,0.261
1067,1352853198.981,9331400,-31453,-1524,1818.4660000000001,1340.455,0.28300000000000003,0.313
1072,1352853199.016,9331400,-31417,-1499,1815.9229999999998,1232.767,0.3,0.348
1077,1352853199.051,9331400,-31381,-1466,1813.021,1157.351,0.408,0.381
1082,1352853199.085,9331400,-31355,-1447,1812.622,1129.934,0.41600000000000004,0.354
1087,1352853199.12,9331400,-31322,-1431,1812.622,1083.056,0.429,0.363
1092,1352853199.157,9331400,-31283,-1405,1812.622,1077.0430000000001,0.434,0.35200000000000004
1097,1352853199.192,9331400,-31251,-1388,1812.622,1094.545,0.42700000000000005,0.354
1102,1352853199.225,9331400,-31224,-1383,1812.622,1042.596,0.41600000000000004,0.375
1107,1352853199.26,9331400,-31195,-1367,1812.622,1035.441,0.44,0.44299999999999995
1112,1352853199.295,9331400,-31074,-1379,1808.354,1345.3429999999998,0.315,0.324
1117,1352853199.328,9331400,-31018,-1390,1802.412,1419.338,0.217,0.253
1122,1352853199.363,9331400,-30951,-1379,1797.622,1498.9720000000002,0.187,0.23399999999999999
1127,1352853199.404,9331400,-30872,-1373,1793.2839999999999,1601.104,0.23,0.218
1132,1352853199.438,9331400,-30808,-1361,1789.368,1662.195,0.261,0.217
1137,1352853199.472,9331400,-30787,-1335,1784.789,1551.8770000000002,0.289,0.23
1142,1352853199.507,9331400,-30735,-1321,1784.9489999999998,1478.638,0.273,0.21899999999999997
1147,1352853199.543,9331400,-30601,-1341,1774.485,1810.114,0.21899999999999997,0.158
1152,1352853199.578,9331400,-30546,-1334,1760.75,1777.961,0.22699999999999998,0.109
1157,1352853199.6160002,9331400,-30387,-1335,1751.36,1976.963,0.12,0.006
1162,1352853199.65,9331400,-30323,-1324,1740.7520000000002,2052.38,0.048,0.0
1167,1352853199.686,9331400,-30294,-1228,1733.642,2179.973,0.19699999999999998,0.057
1172,1352853199.722,9331400,-30246,-1175,1729.82,2069.627,0.212,0.06
1177,1352853199.757,9331400,-30177,-992,1724.297,2358.408,0.526,0.295
1182,1352853199.7910001,9331400,-30155,-941,1716.753,2184.138,0.508,0.32
1187,1352853199.826,9331400,-30105,-922,1708.815,2122.409,0.41,0.294
1192,1352853199.86,9331400,-30071,-921,1700.523,2014.463,0.264,0.215
1197,1352853199.895,9331400,-29971,-940,1691.6860000000001,1983.596,0.134,0.201
1202,1352853199.932,9331400,-29906,-963,1679.736,1902.121,0.055,0.19899999999999998
1207,1352853199.971,9331400,-29834,-949,1679.645,1804.9,0.059000000000000004,0.184
1212,1352853200.0080001,9331400,-29772,-945,1679.645,1756.12,0.069,0.19399999999999998
1217,1352853200.046,9331400,-29712,-937,1679.645,1654.8270000000002,0.127,0.20199999999999999
1222,1352853200.082,9331400,-29655,-933,1679.645,1605.5720000000001,0.039,0.18100000000000002
1227,1352853200.121,9331400,-29588,-926,1679.645,1564.3329999999999,0.039,0.16699999999999998
1232,1352853200.155,9331400,-29706,-952,1675.44,1442.415,0.21899999999999997,0.11199999999999999
1237,1352853200.19,9331400,-29636,-955,1664.2939999999999,1630.195,0.2,0.052000000000000005
1242,1352853200.228,9331400,-29598,-963,1645.3410000000001,1665.2879999999998,0.196,0.065
1247,1352853200.264,9331400,-29522,-903,1638.0739999999998,1685.404,0.34,0.14400000000000002
1252,1352853200.3,9331400,-29452,-860,1635.118,1721.516,0.40700000000000003,0.223
1257,1352853200.336,9331400,-29385,-816,1626.4070000000002,1783.28,0.419,0.29
1262,1352853200.371,9331400,-29339,-786,1617.713,1725.558,0.466,0.39299999999999996
1267,1352853200.4060001,9331400,-29281,-771,1618.515,1665.18,0.424,0.382
1272,1352853200.443,9331400,-29229,-741,1618.515,1632.977,0.446,0.37
1277,1352853200.477,9331400,-29146,-704,1604.999,1755.536,0.43200000000000005,0.42
1282,1352853200.514,9331400,-29074,-683,1593.511,1764.089,0.401,0.457
1287,1352853200.55,9331400,-29156,-654,1570.874,1419.9979999999998,0.51,0.48
1292,1352853200.587,9331400,-29137,-655,1551.9589999999998,1277.635,0.319,0.35
1297,1352853200.621,9331400,-29098,-672,1538.0420000000001,1296.144,0.21899999999999997,0.27699999999999997
1302,1352853200.657,9331400,-29055,-658,1529.36,1353.3310000000001,0.188,0.249
1307,1352853200.693,9331400,-29004,-651,1520.1,1353.026,0.201,0.223
1312,1352853200.7289999,9331400,-28958,-637,1504.036,1354.974,0.17,0.233
1317,1352853200.765,9331400,-28920,-623,1487.39,1230.193,0.243,0.261
1322,1352853200.801,9331400,-28948,-571,1483.194,1047.736,0.436,0.307
1327,1352853200.84,9331400,-28915,-518,1475.783,1080.9460000000001,0.44,0.387
1332,1352853200.8760002,9331400,-28811,-396,1453.775,1423.235,0.561,0.5539999999999999
1337,1352853200.91,9331400,-28778,-380,1461.62,1344.04,0.51,0.58
1342,1352853200.947,9331400,-28756,-398,1465.28,1261.69,0.513,0.5489999999999999
1347,1352853200.98,9331400,-28709,-375,1464.882,1266.58,0.478,0.528
1352,1352853201.016,9331400,-28607,-259,1460.704,1467.0929999999998,0.57,0.617
1357,1352853201.051,9331400,-28592,-296,1462.261,1281.5839999999998,0.516,0.505
1362,1352853201.086,9331400,-28587,-344,1460.364,1149.261,0.485,0.42100000000000004
1367,1352853201.122,9331400,-28564,-382,1456.483,1074.86,0.387,0.35100000000000003
1372,1352853201.1560001,9331400,-28541,-400,1456.974,1060.465,0.29600000000000004,0.326
1377,1352853201.19,9331400,-28495,-372,1456.7520000000002,1071.803,0.369,0.35
1382,1352853201.224,9331400,-28463,-338,1456.3729999999998,1062.63,0.39799999999999996,0.373
1387,1352853201.2589998,9331400,-28449,-315,1456.895,1106.0739999999998,0.48200000000000004,0.44
1392,1352853201.293,9331400,-28412,-269,1457.805,1180.697,0.547,0.516
1397,1352853201.33,9331400,-28359,-208,1457.568,1280.421,0.561,0.552
1402,1352853201.369,9331400,-28312,-159,1457.579,1297.323,0.606,0.56
1407,1352853201.404,9331400,-28258,-117,1457.799,1377.69,0.535,0.565
1412,1352853201.44,9331400,-28223,-65,1457.84,1411.765,0.601,0.613
1417,1352853201.474,9331400,-28211,-42,1457.6670000000001,1350.606,0.648,0.6609999999999999
1422,1352853201.5089998,9331400,-28150,18,1458.056,1426.056,0.6759999999999999,0.6970000000000001
1427,1352853201.543,9331400,-28106,68,1458.024,1458.344,0.711,0.7140000000000001
1432,1352853201.583,9331400,-28076,117,1457.995,1476.785,0.741,0.727
1437,1352853201.619,9331400,-28090,99,1457.4170000000001,1366.776,0.665,0.687
1442,1352853201.655,9331400,-28068,140,1457.241,1245.33,0.7070000000000001,0.7020000000000001
1447,1352853201.691,9331400,-28043,164,1457.348,1236.38,0.7509999999999999,0.6990000000000001
1452,1352853201.727,9331400,-28025,181,1457.0410000000002,1247.902,0.764,0.68
1457,1352853201.766,9331400,-27996,218,1457.0339999999999,1233.879,0.768,0.716
1462,1352853201.802,9331400,-27963,244,1457.0339999999999,1187.732,0.727,0.723
1467,1352853201.838,9331400,-27799,299,1457.4489999999998,1246.818,0.711,0.7040000000000001
1472,1352853201.8730001,9331400,-27730,347,1457.95,1235.835,0.72,0.77
1477,1352853201.91,9331400,-27700,381,1457.912,1140.431,0.7879999999999999,0.7709999999999999
1482,1352853201.945,9331400,-27672,407,1457.912,1131.807,0.754,0.762
1487,1352853201.98,9331400,-27648,428,1457.912,1019.432,0.743,0.7809999999999999
1492,1352853202.014,9331400,-27627,447,1457.912,1023.431,0.758,0.784
1497,1352853202.048,9331400,-27605,474,1457.912,975.87,0.7290000000000001,0.812
1502,1352853202.0839999,9331400,-27582,494,1457.912,941.405,0.7340000000000001,0.885
1507,1352853202.121,9331400,-27385,280,1453.4820000000002,1255.396,-0.092,0.557
1512,1352853202.157,9331400,-27308,274,1449.51,1249.532,0.003,0.525
1517,1352853202.192,9331400,-27242,276,1447.308,1259.234,0.156,0.504
1522,1352853202.2289999,9331400,-27156,335,1441.891,1313.2279999999998,0.306,0.519
1527,1352853202.266,9331400,-27101,340,1434.656,1387.24,0.35700000000000004,0.53
1532,1352853202.307,9331400,-27050,412,1430.3120000000001,1411.121,0.47600000000000003,0.539
1537,1352853202.3439999,9331400,-26994,469,1424.351,1440.098,0.547,0.517
1542,1352853202.381,9331400,-26944,485,1423.747,1454.17,0.505,0.531
1547,1352853202.4160001,9331400,-26868,495,1422.944,1554.4660000000001,0.511,0.527
1552,1352853202.45,9331400,-26802,509,1415.124,1602.8729999999998,0.5579999999999999,0.54
1557,1352853202.485,9331400,-26754,528,1407.339,1602.369,0.599,0.537
1562,1352853202.523,9331400,-26705,586,1399.578,1566.104,0.645,0.5870000000000001
1567,1352853202.559,9331400,-26669,628,1392.043,1547.906,0.706,0.627
1572,1352853202.595,9331400,-26631,659,1387.594,1498.067,0.713,0.631
1577,1352853202.63,9331400,-26606,660,1383.7160000000001,1488.0710000000001,0.63,0.595
1582,1352853202.667,9331400,-26562,694,1383.434,1475.866,0.618,0.57
1587,1352853202.706,9331400,-26475,701,1370.685,1496.999,0.524,0.539
1592,1352853202.744,9331400,-26411,712,1354.4589999999998,1536.5910000000001,0.45799999999999996,0.495
1597,1352853202.779,9331400,-26341,708,1345.4979999999998,1649.0739999999998,0.327,0.373
1602,1352853202.814,9331400,-26287,714,1338.318,1628.588,0.304,0.335
1607,1352853202.851,9331400,-26231,731,1338.4070000000002,1522.539,0.27699999999999997,0.332
1612,1352853202.8860002,9331400,-26181,737,1338.4070000000002,1469.481,0.254,0.318
1617,1352853202.922,9331400,-26130,745,1338.4070000000002,1441.922,0.247,0.319
1622,1352853202.957,9331400,-26076,754,1338.4070000000002,1409.4479999999999,0.271,0.321
1627,1352853202.993,9331400,-26032,766,1338.4070000000002,1352.7479999999998,0.261,0.31
1632,1352853203.034,9331400,-25975,773,1338.4070000000002,1359.04,0.26899999999999996,0.309
1637,1352853203.071,9331400,-25925,783,1338.3339999999998,1365.368,0.257,0.33299999999999996
1642,1352853203.1069999,9331400,-25837,724,1335.8310000000001,1666.64,0.021,0.145
1647,1352853203.142,9331400,-25824,662,1332.6270000000002,1731.7779999999998,-0.031,0.107
1652,1352853203.179,9331400,-25757,654,1332.626,1677.5020000000002,0.034,0.08800000000000001
1657,1352853203.214,9331400,-25697,650,1332.626,1604.149,-0.031,0.09
1662,1352853203.2489998,9331400,-25646,698,1333.024,1601.226,0.075,0.07
