,time,id,x,y,z,velocity,angle of motion,facing angle
30400,1352853347.23,9354700,15495,-11678,1854.642,1324.079,2.477,0.0
30417,1352853347.267,9354700,15493,-11676,1829.025,1324.457,2.456,1.3869999999999998
30434,1352853347.306,9354700,15470,-11640,1810.704,1307.7910000000002,2.34,2.464
30451,1352853347.3439999,9354700,15443,-11601,1800.741,1233.6660000000002,2.276,2.325
30468,1352853347.3830001,9354700,15407,-11560,1790.489,1268.663,2.285,2.305
30485,1352853347.423,9354700,15370,-11526,1833.612,1284.031,2.319,2.294
30502,1352853347.461,9354700,15341,-11509,1879.15,1207.816,2.28,2.262
30519,1352853347.5,9354700,15308,-11477,1901.504,1204.306,2.294,2.2769999999999997
30536,1352853347.537,9354700,15256,-11429,1894.816,1295.442,2.324,2.301
30553,1352853347.576,9354700,15203,-11387,1886.612,1303.643,2.367,2.323
30570,1352853347.612,9354700,15154,-11332,1870.1860000000001,1364.713,2.3169999999999997,2.256
30587,1352853347.649,9354700,15113,-11284,1851.3829999999998,1423.033,2.275,2.2319999999999998
30604,1352853347.691,9354700,15065,-11274,1855.713,1297.5410000000002,2.312,2.334
30621,1352853347.728,9354700,15036,-11276,1858.59,1232.153,2.349,2.384
30638,1352853347.766,9354700,15019,-11208,1850.442,1281.318,2.234,2.275
30655,1352853347.808,9354700,14959,-11143,1848.05,1297.828,2.245,2.29
30672,1352853347.8439999,9354700,14915,-11097,1846.251,1321.405,2.249,2.289
30689,1352853347.881,9354700,14848,-11053,1836.2620000000002,1354.279,2.336,2.35
30706,1352853347.918,9354700,14802,-10988,1826.906,1435.306,2.261,2.315
30723,1352853347.955,9354700,14725,-10931,1861.7420000000002,1599.0179999999998,2.3930000000000002,2.3609999999999998
30740,1352853347.993,9354700,14669,-10893,1894.914,1578.0520000000001,2.396,2.427
30757,1352853348.032,9354700,14652,-10847,1887.101,1510.612,2.345,2.3930000000000002
30774,1352853348.068,9354700,14642,-10753,1874.899,1573.142,2.246,2.367
30791,1352853348.1069999,9354700,14586,-10688,1864.912,1590.5620000000001,2.326,2.398
30808,1352853348.15,9354700,14614,-10722,1857.296,1275.578,2.3930000000000002,2.344
30825,1352853348.187,9354700,14621,-10706,1850.024,1144.2839999999999,2.319,2.255
30842,1352853348.222,9354700,14620,-10686,1841.249,1105.922,2.26,2.194
30859,1352853348.2589998,9354700,14611,-10654,1836.076,1085.704,2.119,2.138
30876,1352853348.298,9354700,14598,-10620,1831.4129999999998,1093.03,2.065,2.149
30893,1352853348.335,9354700,14558,-10610,1827.524,1004.1210000000001,2.117,2.181
30910,1352853348.3730001,9354700,14506,-10605,1822.4679999999998,1022.7139999999999,2.275,2.238
30927,1352853348.409,9354700,14455,-10539,1810.279,1145.65,2.228,2.244
30944,1352853348.447,9354700,14425,-10513,1798.494,1085.604,2.3080000000000003,2.287
30961,1352853348.485,9354700,14396,-10471,1792.487,1097.173,2.3,2.292
30978,1352853348.523,9354700,14379,-10450,1788.221,1081.002,2.302,2.316
30995,1352853348.559,9354700,14365,-10450,1806.655,1059.969,2.3369999999999997,2.355
31012,1352853348.597,9354700,14327,-10412,1806.609,1089.35,2.376,2.313
31029,1352853348.6339998,9354700,14298,-10390,1806.609,998.122,2.405,2.3819999999999997
31046,1352853348.67,9354700,14210,-10333,1800.496,1232.5819999999999,2.52,2.385
31063,1352853348.706,9354700,14181,-10304,1795.067,1310.299,2.48,2.373
31080,1352853348.744,9354700,14013,-10100,1776.787,1820.3370000000002,2.32,2.097
31097,1352853348.782,9354700,13961,-10046,1763.12,1749.785,2.316,2.141
31114,1352853348.82,9354700,13914,-9993,1764.565,1789.181,2.266,2.1430000000000002
31131,1352853348.862,9354700,13955,-10039,1765.1729999999998,1525.6660000000002,2.315,2.211
31148,1352853348.9,9354700,13922,-9997,1765.39,1433.567,2.362,2.249
31165,1352853348.939,9354700,13847,-9884,1761.996,1553.58,2.1630000000000003,2.149
31182,1352853348.975,9354700,13813,-9811,1759.942,1596.7579999999998,2.135,2.14
31199,1352853349.013,9354700,13775,-9705,1782.7620000000002,1696.656,2.051,2.075
31217,1352853349.05,9354700,13739,-9648,1810.711,1567.017,2.09,2.092
31235,1352853349.086,9354700,13687,-9602,1807.1960000000001,1510.899,2.153,2.157
31253,1352853349.1239998,9354700,13671,-9548,1798.634,1519.192,2.135,2.148
31271,1352853349.163,9354700,13630,-9496,1789.524,1518.245,2.119,2.162
31289,1352853349.203,9354700,13588,-9440,1776.102,1461.933,2.099,2.171
31307,1352853349.2389998,9354700,13561,-9404,1762.7220000000002,1420.9,2.137,2.168
31325,1352853349.277,9354700,13538,-9370,1745.056,1407.05,2.129,2.173
31343,1352853349.313,9354700,13516,-9341,1764.729,1396.5629999999999,2.174,2.2
31361,1352853349.348,9354700,13473,-9254,1805.2320000000002,1575.672,2.117,2.185
31379,1352853349.3839998,9354700,13439,-9175,1827.14,1661.6129999999998,2.117,2.169
31397,1352853349.423,9354700,13415,-9085,1884.754,1668.3129999999999,2.075,2.127
31415,1352853349.461,9354700,13353,-9098,1872.746,1566.251,2.158,2.137
31432,1352853349.503,9354700,13328,-9134,1855.645,1382.592,2.175,2.195
31449,1352853349.5410001,9354700,13288,-9082,1838.121,1432.29,2.209,2.157
31466,1352853349.585,9354700,13236,-9028,1821.205,1468.285,2.299,2.175
31484,1352853349.622,9354700,13187,-8986,1814.8410000000001,1528.443,2.329,2.2159999999999997
31502,1352853349.662,9354700,13139,-8908,1841.51,1569.6870000000001,2.318,2.295
31520,1352853349.701,9354700,13108,-8841,1853.7,1558.8970000000002,2.282,2.3409999999999997
31538,1352853349.7419999,9354700,13066,-8798,1843.979,1554.898,2.241,2.29
31556,1352853349.779,9354700,13052,-8732,1834.598,1515.4620000000002,2.218,2.273
31574,1352853349.819,9354700,13031,-8688,1823.556,1444.0910000000001,2.28,2.251
31592,1352853349.855,9354700,12972,-8634,1811.612,1542.62,2.377,2.355
31610,1352853349.8930001,9354700,12931,-8610,1794.2089999999998,1473.914,2.479,2.4459999999999997
31628,1352853349.93,9354700,12891,-8587,1793.099,1400.629,2.44,2.465
31646,1352853349.968,9354700,12852,-8551,1793.099,1316.989,2.4459999999999997,2.576
31664,1352853350.007,9354700,12843,-8516,1847.402,1230.045,2.347,2.4530000000000003
31682,1352853350.044,9354700,12797,-8470,1891.5410000000002,1301.976,2.396,2.39
31700,1352853350.082,9354700,12771,-8416,1930.632,1422.786,2.3409999999999997,2.287
31718,1352853350.121,9354700,12728,-8372,1927.836,1477.25,2.3930000000000002,2.329
31736,1352853350.16,9354700,12674,-8354,1921.414,1611.612,2.428,2.388
31754,1352853350.198,9354700,12595,-8301,1911.704,1722.737,2.494,2.432
31772,1352853350.234,9354700,12537,-8268,1900.976,1689.5829999999999,2.569,2.4859999999999998
31790,1352853350.27,9354700,12496,-8250,1882.746,1636.6960000000001,2.577,2.525
31808,1352853350.313,9354700,12435,-8206,1867.5720000000001,1589.465,2.495,2.5380000000000003
31826,1352853350.352,9354700,12408,-8150,1850.3870000000002,1506.4879999999998,2.399,2.47
31844,1352853350.391,9354700,12364,-8110,1841.5510000000002,1435.4160000000002,2.4290000000000003,2.463
31862,1352853350.433,9354700,12299,-8067,1842.275,1467.0320000000002,2.576,2.572
31880,1352853350.471,9354700,12252,-8028,1840.1879999999999,1447.979,2.57,2.576
31898,1352853350.507,9354700,12226,-8001,1837.328,1402.3470000000002,2.565,2.588
31915,1352853350.548,9354700,12247,-7973,1889.2220000000002,1272.1760000000002,2.519,2.57
31932,1352853350.586,9354700,12197,-7929,1889.749,1275.305,2.52,2.528
31949,1352853350.6230001,9354700,12174,-7904,1891.5020000000002,1171.5839999999998,2.517,2.496
31966,1352853350.66,9354700,12171,-7897,1888.6229999999998,1129.4160000000002,2.5660000000000003,2.52
31983,1352853350.694,9354700,12161,-7879,1883.582,1105.27,2.593,2.549
32000,1352853350.7289999,9354700,12148,-7845,1877.957,1011.1489999999999,2.582,2.5610000000000004
32017,1352853350.769,9354700,12107,-7820,1878.1170000000002,998.034,2.51,2.552
32034,1352853350.807,9354700,12071,-7792,1878.1170000000002,954.696,2.552,2.5810000000000004
32051,1352853350.8439999,9354700,12043,-7777,1878.1170000000002,887.209,2.5780000000000003,2.688
32068,1352853350.88,9354700,12016,-7761,1878.1170000000002,842.7510000000001,2.5469999999999997,2.719
32085,1352853350.917,9354700,11940,-7751,1871.243,1081.525,2.6319999999999997,2.636
32102,1352853350.955,9354700,11902,-7767,1863.519,1030.722,2.6889999999999996,2.71
32119,1352853350.993,9354700,11868,-7753,1863.354,1016.904,2.685,2.699
32136,1352853351.034,9354700,11837,-7730,1863.354,987.061,2.693,2.7760000000000002
32153,1352853351.073,9354700,11800,-7708,1863.354,949.4760000000001,2.716,2.763
32170,1352853351.113,9354700,11823,-7505,1878.296,1208.904,2.2030000000000003,2.347
32186,1352853351.15,9354700,11812,-7433,1893.299,1285.5839999999998,2.14,2.1959999999999997
32202,1352853351.188,9354700,11763,-7327,1891.559,1471.2820000000002,2.09,2.086
32218,1352853351.225,9354700,11727,-7274,1886.84,1453.579,2.0980000000000003,2.056
32234,1352853351.262,9354700,11664,-7221,1882.454,1463.058,2.156,2.05
32250,1352853351.301,9354700,11605,-7183,1875.849,1421.237,2.245,2.106
32266,1352853351.337,9354700,11522,-7133,1863.23,1536.746,2.339,2.148
32282,1352853351.3760002,9354700,11340,-7133,1845.3870000000002,1697.899,2.5839999999999996,2.419
32298,1352853351.413,9354700,11269,-7099,1840.844,1683.274,2.5989999999999998,2.528
32314,1352853351.449,9354700,11230,-7058,1832.171,1703.838,2.504,2.494
32330,1352853351.486,9354700,11195,-7019,1824.0320000000002,1677.815,2.459,2.509
32346,1352853351.525,9354700,11196,-6962,1815.4189999999999,1592.941,2.315,2.404
32362,1352853351.561,9354700,11185,-6923,1807.3210000000001,1521.191,2.252,2.33
32378,1352853351.599,9354700,11140,-6869,1800.058,1577.464,2.285,2.343
32394,1352853351.637,9354700,11102,-6821,1798.5520000000001,1570.56,2.296,2.3409999999999997
32410,1352853351.672,9354700,11095,-6769,1796.308,1535.6760000000002,2.23,2.2769999999999997
32426,1352853351.7089999,9354700,11052,-6730,1783.5520000000001,1528.3770000000002,2.248,2.313
32442,1352853351.75,9354700,11013,-6689,1769.611,1462.654,2.267,2.294
32458,1352853351.788,9354700,10923,-6655,1760.9270000000001,1606.392,2.294,2.325
32474,1352853351.825,9354700,10871,-6622,1752.901,1647.674,2.353,2.336
32490,1352853351.862,9354700,10796,-6604,1735.89,1749.9579999999999,2.46,2.3930000000000002
32506,1352853351.9,9354700,10743,-6598,1717.628,1719.828,2.512,2.405
32522,1352853351.939,9354700,10691,-6535,1702.1529999999998,1782.08,2.472,2.384
32538,1352853351.976,9354700,10652,-6483,1701.4560000000001,1715.5420000000001,2.391,2.386
32554,1352853352.014,9354700,10620,-6432,1701.9920000000002,1656.001,2.338,2.39
32570,1352853352.052,9354700,10586,-6373,1702.225,1676.4089999999999,2.246,2.355
32586,1352853352.089,9354700,10559,-6306,1701.944,1748.251,2.225,2.299
32602,1352853352.1269999,9354700,10541,-6252,1699.911,1641.504,2.184,2.282
32618,1352853352.1660001,9354700,10547,-6210,1697.379,1486.0739999999998,2.142,2.2359999999999998
32634,1352853352.204,9354700,10543,-6189,1695.396,1356.5479999999998,2.186,2.206
32650,1352853352.238,9354700,10562,-6174,1694.136,1246.76,2.197,2.18
32666,1352853352.276,9354700,10570,-6100,1731.2060000000001,1218.587,2.16,2.052
32682,1352853352.317,9354700,10487,-6057,1722.9489999999998,1168.7169999999999,2.2159999999999997,2.115
32698,1352853352.3539999,9354700,10430,-6043,1703.0810000000001,1173.0,2.2880000000000003,2.155
32714,1352853352.391,9354700,10371,-6000,1693.381,1239.81,2.318,2.18
32730,1352853352.43,9354700,10307,-5957,1684.249,1324.431,2.272,2.191
32746,1352853352.473,9354700,10229,-5890,1665.668,1420.662,2.234,2.21
32762,1352853352.512,9354700,10168,-5837,1656.88,1430.79,2.205,2.198
32779,1352853352.549,9354700,10140,-5823,1643.131,1456.99,2.218,2.202
32796,1352853352.588,9354700,10102,-5771,1711.4189999999999,1478.277,2.181,2.174
32813,1352853352.629,9354700,10071,-5725,1741.999,1520.971,2.112,2.145
32830,1352853352.668,9354700,10049,-5671,1734.763,1506.0339999999999,2.036,2.11
32847,1352853352.706,9354700,10028,-5644,1712.015,1449.5179999999998,2.055,2.156
32864,1352853352.743,9354700,10008,-5600,1729.781,1495.861,2.0709999999999997,2.1630000000000003
32881,1352853352.782,9354700,9935,-5550,1725.045,1539.931,2.198,2.24
32898,1352853352.817,9354700,9877,-5499,1720.47,1554.6429999999998,2.173,2.2569999999999997
32915,1352853352.853,9354700,9822,-5449,1700.3039999999999,1572.0510000000002,2.191,2.266
32932,1352853352.888,9354700,9788,-5434,1680.3129999999999,1558.943,2.248,2.259
32949,1352853352.925,9354700,9748,-5381,1669.599,1549.838,2.26,2.229
32967,1352853352.963,9354700,9683,-5332,1656.111,1650.575,2.28,2.2119999999999997
32985,1352853353.0,9354700,9661,-5300,1716.777,1620.451,2.314,2.202
33003,1352853353.034,9354700,9674,-5264,1739.851,1581.296,2.204,2.162
33021,1352853353.072,9354700,9661,-5218,1730.6879999999999,1564.1760000000002,2.175,2.154
33039,1352853353.111,9354700,9656,-5190,1717.714,1528.332,2.166,2.148
33057,1352853353.148,9354700,9633,-5155,1763.287,1521.704,2.165,2.147
33075,1352853353.187,9354700,9632,-5090,1804.63,1581.8020000000001,2.05,2.103
33093,1352853353.227,9354700,9621,-5039,1834.293,1557.25,1.98,2.05
33111,1352853353.265,9354700,9543,-4983,1826.261,1611.692,2.157,2.208
33129,1352853353.302,9354700,9475,-4940,1819.02,1638.237,2.207,2.272
33147,1352853353.34,9354700,9419,-4903,1802.1960000000001,1636.1,2.275,2.326
33165,1352853353.379,9354700,9424,-4854,1828.1070000000002,1486.557,2.241,2.3
33183,1352853353.418,9354700,9421,-4827,1850.132,1350.6129999999998,2.302,2.29
33201,1352853353.455,9354700,9366,-4804,1847.655,1360.717,2.3819999999999997,2.312
33219,1352853353.4910002,9354700,9329,-4781,1844.674,1358.545,2.399,2.279
33237,1352853353.527,9354700,9269,-4736,1839.776,1462.886,2.346,2.3369999999999997
33255,1352853353.566,9354700,9232,-4696,1839.223,1438.44,2.33,2.42
33273,1352853353.6039999,9354700,9179,-4663,1826.933,1533.0770000000002,2.42,2.449
33291,1352853353.64,9354700,9132,-4656,1817.224,1503.8139999999999,2.4819999999999998,2.44
33309,1352853353.677,9354700,9071,-4618,1800.3410000000001,1590.767,2.4659999999999997,2.472
33327,1352853353.715,9354700,8999,-4575,1781.116,1625.808,2.54,2.503
33345,1352853353.7489998,9354700,8944,-4562,1765.87,1630.316,2.541,2.5469999999999997
33363,1352853353.786,9354700,8919,-4499,1760.3039999999999,1612.776,2.421,2.502
33381,1352853353.823,9354700,8900,-4409,1750.254,1650.381,2.339,2.434
33399,1352853353.861,9354700,8891,-4349,1732.9089999999999,1634.4920000000002,2.285,2.384
33417,1352853353.903,9354700,8915,-4311,1718.8110000000001,1560.8010000000002,2.222,2.2880000000000003
33435,1352853353.94,9354700,8880,-4271,1711.69,1500.619,2.2969999999999997,2.263
33453,1352853353.978,9354700,8842,-4227,1696.612,1586.703,2.281,2.26
33470,1352853354.0180001,9354700,8809,-4212,1687.74,1546.7220000000002,2.217,2.245
33487,1352853354.055,9354700,8765,-4159,1707.395,1644.8570000000002,2.22,2.251
33504,1352853354.0939999,9354700,8730,-4123,1713.2979999999998,1602.576,2.2230000000000003,2.263
33521,1352853354.13,9354700,8684,-4079,1703.85,1601.049,2.235,2.3040000000000003
33538,1352853354.169,9354700,8616,-4031,1705.1660000000002,1647.2020000000002,2.252,2.28
33555,1352853354.206,9354700,8537,-3978,1701.911,1657.246,2.2880000000000003,2.3209999999999997
33572,1352853354.245,9354700,8482,-3926,1702.371,1642.1670000000001,2.27,2.318
33589,1352853354.284,9354700,8458,-3893,1693.457,1518.6979999999999,2.283,2.34
33606,1352853354.321,9354700,8410,-3861,1692.783,1436.944,2.338,2.363
33623,1352853354.36,9354700,8380,-3835,1731.885,1343.961,2.316,2.352
33640,1352853354.3960001,9354700,8352,-3799,1725.961,1376.1889999999999,2.312,2.369
33657,1352853354.434,9354700,8336,-3757,1726.965,1275.616,2.281,2.381
33674,1352853354.471,9354700,8315,-3746,1726.826,1196.911,2.295,2.377
33691,1352853354.51,9354700,8319,-3764,1727.5639999999999,953.047,2.376,2.449
33708,1352853354.548,9354700,8163,-3649,1716.486,1418.086,2.4019999999999997,2.415
33726,1352853354.586,9354700,8144,-3632,1711.894,1276.13,2.318,2.38
33744,1352853354.629,9354700,8151,-3613,1707.243,1096.461,2.3040000000000003,2.355
33762,1352853354.669,9354700,8078,-3578,1704.609,1183.4769999999999,2.37,2.395
33780,1352853354.707,9354700,8042,-3538,1701.342,1211.393,2.3280000000000003,2.3280000000000003
33798,1352853354.745,9354700,7993,-3513,1695.797,1262.078,2.313,2.3609999999999998
33816,1352853354.782,9354700,7992,-3488,1691.58,1118.65,2.229,2.302
33835,1352853354.818,9354700,7981,-3469,1687.0770000000002,1008.574,2.221,2.266
33854,1352853354.855,9354700,7932,-3431,1671.8429999999998,985.577,2.1919999999999997,2.242
33873,1352853354.8930001,9354700,7918,-3412,1656.885,935.452,2.133,2.205
33892,1352853354.93,9354700,7894,-3391,1646.639,887.545,2.1830000000000003,2.225
33911,1352853354.97,9354700,7860,-3377,1647.214,866.951,2.287,2.279
33930,1352853355.0089998,9354700,7839,-3315,1638.2979999999998,936.329,2.229,2.22
33949,1352853355.046,9354700,7796,-3192,1627.4979999999998,1106.062,2.17,2.117
33968,1352853355.088,9354700,7757,-3129,1626.29,1119.231,2.153,2.1319999999999997
33987,1352853355.1260002,9354700,7719,-3089,1625.1570000000002,1210.9080000000001,2.193,2.135
34006,1352853355.1660001,9354700,7732,-2999,1620.9,1191.631,1.9469999999999998,1.996
34025,1352853355.204,9354700,7719,-2939,1621.253,1239.14,1.909,1.935
34044,1352853355.244,9354700,7631,-2907,1626.109,1251.068,2.155,2.09
34063,1352853355.283,9354700,7620,-2860,1623.5839999999998,1368.385,2.109,2.127
34082,1352853355.32,9354700,7597,-2830,1621.6860000000001,1281.53,2.102,2.141
34101,1352853355.362,9354700,7553,-2781,1622.086,1331.514,2.102,2.168
34120,1352853355.398,9354700,7498,-2718,1623.04,1464.2120000000002,2.173,2.182
34139,1352853355.439,9354700,7448,-2661,1619.384,1498.265,2.11,2.164
34158,1352853355.476,9354700,7381,-2596,1625.675,1552.4160000000002,2.167,2.166
34177,1352853355.514,9354700,7327,-2542,1628.59,1660.0620000000001,2.239,2.187
34196,1352853355.552,9354700,7272,-2508,1627.391,1655.836,2.3040000000000003,2.222
34215,1352853355.591,9354700,7221,-2491,1627.13,1625.44,2.365,2.279
34234,1352853355.632,9354700,7189,-2416,1619.0420000000001,1718.969,2.25,2.213
34253,1352853355.672,9354700,7118,-2386,1613.536,1712.259,2.273,2.251
34271,1352853355.71,9354700,7049,-2370,1607.4589999999998,1697.02,2.322,2.338
34289,1352853355.7480001,9354700,6999,-2336,1599.602,1644.808,2.394,2.4130000000000003
34307,1352853355.785,9354700,6938,-2296,1588.9479999999999,1661.055,2.426,2.416
34325,1352853355.826,9354700,6899,-2273,1583.7979999999998,1580.005,2.425,2.4619999999999997
34343,1352853355.865,9354700,6824,-2162,1650.639,1769.5279999999998,2.379,2.3890000000000002
34361,1352853355.903,9354700,6773,-2092,1704.896,1899.671,2.38,2.342
34379,1352853355.94,9354700,6777,-2110,1690.17,1684.134,2.451,2.377
34397,1352853355.9789999,9354700,6719,-2110,1668.5339999999999,1709.1670000000001,2.571,2.4859999999999998
34415,1352853356.0180001,9354700,6688,-2100,1646.3210000000001,1622.184,2.5660000000000003,2.5540000000000003
34433,1352853356.058,9354700,6643,-2053,1639.351,1561.943,2.52,2.5380000000000003
34451,1352853356.096,9354700,6595,-2022,1641.376,1493.129,2.56,2.553
34469,1352853356.1360002,9354700,6538,-1984,1669.4470000000001,1528.442,2.5,2.501
34487,1352853356.176,9354700,6467,-1986,1659.631,1510.781,2.602,2.582
34505,1352853356.215,9354700,6426,-1980,1645.231,1549.892,2.591,2.59
34523,1352853356.256,9354700,6379,-1935,1638.349,1502.8310000000001,2.544,2.5860000000000003
34541,1352853356.293,9354700,6334,-1899,1631.685,1470.229,2.543,2.573
34559,1352853356.333,9354700,6280,-1849,1698.739,1456.089,2.49,2.5639999999999996
34577,1352853356.371,9354700,6223,-1801,1755.997,1497.356,2.456,2.522
34595,1352853356.411,9354700,6163,-1744,1839.888,1595.668,2.451,2.5180000000000002
34613,1352853356.447,9354700,6078,-1690,1848.983,1765.8220000000001,2.489,2.492
34631,1352853356.488,9354700,6014,-1659,1855.279,1756.6070000000002,2.516,2.489
34649,1352853356.528,9354700,5951,-1601,1843.269,1821.5910000000001,2.491,2.463
34667,1352853356.569,9354700,5906,-1569,1827.129,1742.3039999999999,2.4930000000000003,2.491
34685,1352853356.6069999,9354700,5859,-1535,1824.336,1722.226,2.454,2.496
34703,1352853356.6460001,9354700,5811,-1511,1831.6660000000002,1716.6270000000002,2.4459999999999997,2.535
