,time,id,x,y,z,velocity,angle of motion,facing angle
32763,1352853352.512,9355200,44412,-20550,1527.481,1023.568,-2.838,0.0
32780,1352853352.549,9355200,44412,-20549,1521.243,1017.301,-2.8789999999999996,1.416
32797,1352853352.588,9355200,44364,-20556,1516.267,958.143,-2.983,-2.73
32814,1352853352.629,9355200,44316,-20568,1528.602,954.8639999999999,-2.917,-2.798
32831,1352853352.668,9355200,44269,-20593,1523.719,973.306,-2.832,-2.8110000000000004
32848,1352853352.706,9355200,44224,-20631,1513.3239999999998,1049.296,-2.7230000000000003,-2.708
32865,1352853352.743,9355200,44167,-20660,1510.1570000000002,1107.365,-2.7110000000000003,-2.675
32882,1352853352.782,9355200,44111,-20683,1499.08,1122.097,-2.708,-2.6910000000000003
32899,1352853352.817,9355200,44062,-20700,1494.3270000000002,1175.229,-2.7569999999999997,-2.747
32916,1352853352.853,9355200,44032,-20725,1490.465,1140.247,-2.719,-2.792
32933,1352853352.888,9355200,43992,-20750,1485.622,1166.006,-2.673,-2.792
32950,1352853352.925,9355200,43943,-20773,1544.035,1171.77,-2.676,-2.7680000000000002
32968,1352853352.963,9355200,43882,-20809,1544.684,1223.4089999999999,-2.6060000000000003,-2.7430000000000003
32986,1352853353.0,9355200,43841,-20828,1536.876,1276.545,-2.6,-2.714
33004,1352853353.034,9355200,43804,-20856,1556.4820000000002,1224.362,-2.593,-2.6039999999999996
33022,1352853353.072,9355200,43764,-20885,1548.088,1147.992,-2.596,-2.5669999999999997
33040,1352853353.111,9355200,43745,-20891,1571.15,1178.692,-2.543,-2.5610000000000004
33058,1352853353.148,9355200,43698,-20929,1590.904,1098.588,-2.583,-2.53
33076,1352853353.187,9355200,43666,-20957,1598.9129999999998,1165.124,-2.49,-2.513
33094,1352853353.227,9355200,43641,-20968,1597.2620000000002,1128.048,-2.44,-2.56
33112,1352853353.265,9355200,43594,-20983,1597.1,1126.514,-2.532,-2.6289999999999996
33130,1352853353.302,9355200,43539,-21023,1595.082,1148.319,-2.537,-2.569
33148,1352853353.34,9355200,43527,-20954,1615.2,1096.847,-2.6839999999999997,-2.667
33166,1352853353.379,9355200,43485,-20956,1613.17,1165.94,-2.6439999999999997,-2.697
33184,1352853353.418,9355200,43417,-20958,1604.8370000000002,1310.7720000000002,-2.679,-2.7310000000000003
33202,1352853353.455,9355200,43505,-20963,1595.951,944.7310000000001,-2.569,-2.6689999999999996
33220,1352853353.4910002,9355200,43376,-20895,1588.3139999999999,1147.131,-2.761,-2.843
33238,1352853353.527,9355200,43336,-20851,1580.723,1017.922,-3.014,3.137
33256,1352853353.566,9355200,43303,-20847,1575.68,1039.859,-3.052,-3.1289999999999996
33274,1352853353.6039999,9355200,43281,-20837,1562.4070000000002,974.2230000000001,-3.1039999999999996,3.09
33292,1352853353.64,9355200,43253,-20836,1550.112,1014.1460000000001,3.135,3.071
33310,1352853353.677,9355200,43188,-20797,1543.537,1138.568,2.9189999999999996,2.8930000000000002
33328,1352853353.715,9355200,43134,-20768,1574.043,1250.954,2.8760000000000003,2.826
33346,1352853353.7489998,9355200,43066,-20717,1567.723,1396.901,2.784,2.775
33364,1352853353.786,9355200,42998,-20659,1541.5479999999998,1605.6879999999999,2.5980000000000003,2.718
33382,1352853353.823,9355200,42927,-20614,1543.136,1662.2939999999999,2.589,2.694
33400,1352853353.861,9355200,42848,-20597,1557.825,1709.433,2.633,2.707
33418,1352853353.903,9355200,42859,-20557,1536.435,1581.73,2.5839999999999996,2.6319999999999997
33436,1352853353.94,9355200,42875,-20520,1542.943,1445.638,2.58,2.596
33454,1352853353.978,9355200,42837,-20508,1541.3770000000002,1408.589,2.628,2.5780000000000003
33471,1352853354.0180001,9355200,42796,-20501,1539.8870000000002,1356.735,2.673,2.627
33488,1352853354.055,9355200,42765,-20496,1538.85,1302.81,2.655,2.6860000000000004
33505,1352853354.0939999,9355200,42756,-20498,1535.131,1153.508,2.71,2.679
33522,1352853354.13,9355200,42738,-20494,1536.2420000000002,1087.9360000000001,2.688,2.7110000000000003
33539,1352853354.169,9355200,42723,-20498,1537.059,956.699,2.6689999999999996,2.675
33556,1352853354.206,9355200,42709,-20531,1530.356,798.1010000000001,2.7430000000000003,2.802
33573,1352853354.245,9355200,42679,-20510,1540.0020000000002,862.934,2.6260000000000003,2.7060000000000004
33590,1352853354.284,9355200,42667,-20501,1543.474,844.69,2.657,2.67
33607,1352853354.321,9355200,42524,-20662,1538.898,1012.023,-2.813,-3.032
33624,1352853354.36,9355200,42484,-20669,1532.781,995.952,-2.892,-3.017
33641,1352853354.3960001,9355200,42461,-20679,1531.941,977.02,-2.8110000000000004,-2.948
33658,1352853354.434,9355200,42440,-20683,1529.715,907.935,-2.844,-2.924
33675,1352853354.471,9355200,42399,-20669,1531.2720000000002,839.4830000000001,-2.987,-3.04
33692,1352853354.51,9355200,42362,-20661,1526.348,850.324,-3.05,-3.049
33709,1352853354.548,9355200,42307,-20641,1514.684,957.262,3.1069999999999998,3.139
33727,1352853354.586,9355200,42257,-20613,1513.047,1009.2360000000001,3.028,3.076
33745,1352853354.629,9355200,42222,-20611,1508.631,1007.252,3.031,3.0660000000000003
33763,1352853354.669,9355200,42194,-20669,1499.774,973.743,-3.0239999999999996,-3.13
33781,1352853354.707,9355200,42179,-20735,1492.58,910.408,-2.84,-2.965
33799,1352853354.745,9355200,42155,-20737,1487.349,855.913,-2.883,-2.984
33817,1352853354.782,9355200,42109,-20742,1481.817,927.971,-2.937,-2.985
33836,1352853354.818,9355200,42076,-20733,1477.5320000000002,927.135,-2.963,-3.0589999999999997
33855,1352853354.855,9355200,42067,-20717,1476.4720000000002,874.755,-3.074,3.135
33874,1352853354.8930001,9355200,42041,-20672,1475.2420000000002,828.518,3.01,2.9819999999999998
33893,1352853354.93,9355200,41827,-20649,1514.6329999999998,1331.6660000000002,2.82,3.002
33912,1352853354.97,9355200,41749,-20700,1585.227,1214.903,3.036,3.137
33931,1352853355.0089998,9355200,41712,-20706,1625.244,1144.184,-3.0869999999999997,-3.103
33950,1352853355.046,9355200,41686,-20728,1665.2939999999999,1149.733,-2.864,-2.984
33969,1352853355.088,9355200,41696,-20798,1681.717,1103.583,-2.583,-2.7489999999999997
33988,1352853355.1260002,9355200,41640,-20815,1672.9160000000002,1111.713,-2.641,-2.7769999999999997
34007,1352853355.1660001,9355200,41590,-20837,1662.372,1075.049,-2.707,-2.824
34026,1352853355.204,9355200,41541,-20860,1659.1960000000001,1092.346,-2.7689999999999997,-2.843
34045,1352853355.244,9355200,41510,-20912,1663.41,1076.232,-2.719,-2.787
34064,1352853355.283,9355200,41391,-20621,1589.5,1180.177,2.782,2.6510000000000002
34083,1352853355.32,9355200,41276,-20587,1587.777,1236.7830000000001,2.8360000000000003,2.594
34102,1352853355.362,9355200,41203,-20584,1581.672,1264.67,2.862,2.6310000000000002
34121,1352853355.398,9355200,41180,-20608,1578.704,1120.0539999999999,2.827,2.7230000000000003
34140,1352853355.439,9355200,41181,-20631,1573.9820000000002,912.058,2.7960000000000003,2.69
34159,1352853355.476,9355200,41228,-20670,1568.0710000000001,694.7180000000001,2.877,2.81
34178,1352853355.514,9355200,41203,-20665,1568.089,709.9689999999999,2.847,2.8480000000000003
34197,1352853355.552,9355200,41185,-20655,1568.089,683.466,2.8810000000000002,2.907
34216,1352853355.591,9355200,41163,-20666,1562.721,717.39,3.108,-3.003
34235,1352853355.632,9355200,41078,-20645,1555.944,744.5239999999999,2.915,3.043
34254,1352853355.672,9355200,41071,-20647,1556.418,760.2389999999999,3.033,2.971
34272,1352853355.71,9355200,41058,-20659,1557.0320000000002,699.13,3.05,3.0589999999999997
34290,1352853355.7480001,9355200,41031,-20666,1557.2679999999998,728.29,3.068,3.002
34308,1352853355.785,9355200,40892,-20760,1636.5910000000001,1197.156,-2.779,-2.9560000000000004
34326,1352853355.826,9355200,40825,-20806,1735.568,1276.769,-2.694,-2.8760000000000003
34344,1352853355.865,9355200,40812,-20803,1714.3210000000001,1137.245,-2.74,-2.92
34362,1352853355.903,9355200,40808,-20800,1702.069,1012.472,-2.7939999999999996,-2.97
34380,1352853355.94,9355200,40778,-20792,1686.3529999999998,1019.6489999999999,-2.779,-2.918
34398,1352853355.9789999,9355200,40783,-20774,1671.995,873.7189999999999,-2.87,-3.014
34416,1352853356.0180001,9355200,40706,-20776,1672.444,932.921,-2.84,-3.002
34434,1352853356.058,9355200,40518,-20730,1656.93,1168.799,-3.0380000000000003,-2.998
34452,1352853356.096,9355200,40456,-20551,1649.931,1370.2679999999998,2.8810000000000002,2.865
34470,1352853356.1360002,9355200,40400,-20544,1636.965,1364.4820000000002,2.863,2.852
34488,1352853356.176,9355200,40394,-20500,1610.6170000000002,1273.72,2.7880000000000003,2.79
34506,1352853356.215,9355200,40343,-20500,1604.6989999999998,1265.612,2.862,2.78
34524,1352853356.256,9355200,40320,-20470,1588.985,1178.225,2.659,2.7310000000000003
34542,1352853356.293,9355200,40281,-20454,1579.2839999999999,1194.633,2.705,2.695
34560,1352853356.333,9355200,40233,-20454,1567.575,1171.078,2.7319999999999998,2.753
34578,1352853356.371,9355200,40214,-20413,1552.8239999999998,1147.665,2.647,2.655
34596,1352853356.411,9355200,40157,-20390,1548.714,1155.145,2.612,2.659
34614,1352853356.447,9355200,40101,-20378,1542.983,1263.981,2.6319999999999997,2.6889999999999996
34632,1352853356.488,9355200,40064,-20346,1539.342,1211.35,2.553,2.6460000000000004
34650,1352853356.528,9355200,40021,-20333,1536.007,1223.587,2.611,2.69
34668,1352853356.569,9355200,39958,-20328,1531.295,1302.173,2.6839999999999997,2.7689999999999997
34686,1352853356.6069999,9355200,39913,-20323,1526.412,1222.603,2.761,2.783
34704,1352853356.6460001,9355200,39869,-20312,1520.8970000000002,1153.391,2.812,2.8080000000000003
34722,1352853356.685,9355200,39821,-20302,1514.37,1126.234,2.804,2.787
34740,1352853356.724,9355200,39784,-20285,1509.285,1050.692,2.779,2.8089999999999997
34758,1352853356.762,9355200,39751,-20293,1501.97,1111.818,2.765,2.821
34776,1352853356.804,9355200,39683,-20291,1496.854,1200.781,2.799,2.866
34794,1352853356.843,9355200,39618,-20272,1493.9360000000001,1271.576,2.77,2.802
34812,1352853356.882,9355200,39571,-20241,1547.49,1292.369,2.748,2.721
34830,1352853356.921,9355200,39529,-20192,1549.329,1359.815,2.7310000000000003,2.727
34848,1352853356.9589999,9355200,39484,-20173,1559.53,1296.19,2.722,2.715
34866,1352853356.9989998,9355200,39445,-20169,1558.286,1256.692,2.762,2.784
34884,1352853357.039,9355200,39403,-20168,1593.3329999999999,1224.9189999999999,2.752,2.826
34901,1352853357.079,9355200,39344,-20164,1623.3770000000002,1202.371,2.7889999999999997,2.8710000000000004
34918,1352853357.115,9355200,39287,-20147,1670.4489999999998,1233.975,2.801,2.888
34935,1352853357.154,9355200,39244,-20137,1661.0439999999999,1178.488,2.842,2.904
34952,1352853357.193,9355200,39220,-20133,1649.602,1041.813,2.832,2.872
34969,1352853357.23,9355200,39173,-20119,1700.576,1060.152,2.792,2.8930000000000002
34986,1352853357.269,9355200,39137,-20125,1718.076,1031.462,2.863,2.898
35003,1352853357.308,9355200,39091,-20126,1706.249,1104.8139999999999,2.938,2.912
35020,1352853357.3439999,9355200,39030,-20096,1714.37,1180.76,2.903,2.886
35036,1352853357.3830001,9355200,38982,-20074,1718.26,1225.5430000000001,2.787,2.8
35052,1352853357.421,9355200,38926,-20042,1719.185,1260.472,2.759,2.75
35068,1352853357.4589999,9355200,38861,-20021,1738.1589999999999,1231.527,2.718,2.7539999999999996
35085,1352853357.4989998,9355200,38809,-19994,1782.631,1214.924,2.767,2.755
35102,1352853357.5410001,9355200,38773,-19979,1790.1,1171.47,2.779,2.775
35119,1352853357.58,9355200,38744,-19960,1794.162,1177.855,2.7710000000000004,2.79
35136,1352853357.6169999,9355200,38703,-19951,1794.531,1129.237,2.779,2.807
35153,1352853357.654,9355200,38668,-19938,1787.33,1173.414,2.7689999999999997,2.753
35170,1352853357.693,9355200,38638,-19940,1770.146,1164.389,2.77,2.786
35186,1352853357.73,9355200,38612,-19936,1754.81,1137.681,2.79,2.8160000000000003
35202,1352853357.767,9355200,38580,-19925,1741.182,1034.4389999999999,2.793,2.852
35218,1352853357.801,9355200,38573,-19919,1728.638,937.2760000000001,2.8569999999999998,2.937
35234,1352853357.84,9355200,38531,-19893,1724.3339999999998,942.17,2.8369999999999997,2.845
35250,1352853357.8769999,9355200,38514,-19891,1714.499,1016.7389999999999,2.8280000000000003,2.9010000000000002
35266,1352853357.913,9355200,38483,-19881,1705.296,933.885,2.826,2.9
35282,1352853357.949,9355200,38446,-19866,1698.3370000000002,955.067,2.824,2.887
35298,1352853357.986,9355200,38422,-19845,1693.0,1024.542,2.702,2.764
35314,1352853358.025,9355200,38372,-19813,1710.389,1021.059,2.655,2.716
35330,1352853358.064,9355200,38348,-19784,1715.5629999999999,1028.712,2.612,2.659
35346,1352853358.102,9355200,38303,-19769,1712.102,1074.862,2.716,2.6519999999999997
35362,1352853358.139,9355200,38259,-19734,1712.016,1112.378,2.679,2.6319999999999997
35378,1352853358.18,9355200,38230,-19714,1704.888,1127.367,2.673,2.667
35394,1352853358.216,9355200,38190,-19706,1715.636,1118.789,2.767,2.742
35410,1352853358.257,9355200,38142,-19700,1713.14,1104.357,2.7260000000000004,2.715
35426,1352853358.294,9355200,38108,-19685,1719.8220000000001,1073.464,2.645,2.67
35442,1352853358.331,9355200,38075,-19662,1720.1529999999998,1044.185,2.549,2.583
35459,1352853358.369,9355200,38051,-19658,1739.412,999.2,2.575,2.596
35476,1352853358.408,9355200,38000,-19648,1754.029,1143.111,2.647,2.6639999999999997
35493,1352853358.446,9355200,37946,-19631,1753.7020000000002,1145.611,2.655,2.655
35510,1352853358.485,9355200,37893,-19611,1753.648,1216.819,2.673,2.6839999999999997
35527,1352853358.528,9355200,37832,-19600,1752.876,1232.362,2.738,2.738
35544,1352853358.566,9355200,37767,-19616,1744.531,1315.7089999999998,2.807,2.843
35561,1352853358.606,9355200,37710,-19603,1741.641,1319.0639999999999,2.787,2.843
35578,1352853358.6460001,9355200,37662,-19616,1734.66,1293.8210000000001,2.8110000000000004,2.8339999999999996
35595,1352853358.686,9355200,37628,-19590,1727.08,1230.797,2.722,2.772
35612,1352853358.725,9355200,37618,-19563,1721.757,1200.2,2.6639999999999997,2.673
35628,1352853358.763,9355200,37591,-19552,1718.243,1175.516,2.681,2.675
35644,1352853358.801,9355200,37561,-19529,1717.398,1159.697,2.6630000000000003,2.6310000000000002
35660,1352853358.84,9355200,37527,-19516,1716.0710000000001,1144.741,2.627,2.6519999999999997
35676,1352853358.879,9355200,37484,-19501,1711.7379999999998,1080.62,2.6189999999999998,2.659
35693,1352853358.92,9355200,37469,-19497,1710.57,1044.935,2.63,2.737
35710,1352853358.963,9355200,37432,-19482,1707.763,1046.6680000000001,2.659,2.747
35727,1352853359.005,9355200,37390,-19450,1706.1960000000001,1114.6789999999999,2.559,2.6710000000000003
35744,1352853359.044,9355200,37350,-19432,1703.9489999999998,1175.05,2.5639999999999996,2.62
35761,1352853359.082,9355200,37320,-19429,1703.631,1102.754,2.594,2.6289999999999996
35777,1352853359.119,9355200,37297,-19416,1702.729,1026.67,2.5839999999999996,2.6
35793,1352853359.155,9355200,37302,-19420,1703.201,961.158,2.6069999999999998,2.6519999999999997
35809,1352853359.192,9355200,37078,-19421,1676.641,1538.122,2.7060000000000004,2.8080000000000003
35825,1352853359.231,9355200,37015,-19426,1666.5739999999998,1456.82,2.718,2.7760000000000002
35841,1352853359.27,9355200,36985,-19447,1662.017,1395.94,2.659,2.73
35857,1352853359.31,9355200,36945,-19453,1655.8529999999998,1337.6979999999999,2.694,2.748
35873,1352853359.347,9355200,36903,-19468,1653.236,1298.105,2.734,2.801
35889,1352853359.3839998,9355200,36820,-19476,1639.1670000000001,1370.254,2.783,2.8310000000000004
35905,1352853359.421,9355200,36770,-19465,1625.326,1437.096,2.727,2.81
35921,1352853359.458,9355200,36716,-19444,1611.344,1517.567,2.764,2.8169999999999997
35937,1352853359.496,9355200,36676,-19410,1600.985,1535.4620000000002,2.677,2.762
35953,1352853359.534,9355200,36589,-19404,1586.819,1556.2060000000001,2.747,2.741
35969,1352853359.574,9355200,36518,-19393,1574.076,1573.775,2.7,2.7880000000000003
35985,1352853359.612,9355200,36426,-19391,1572.6779999999999,1599.9279999999999,2.792,2.8
36001,1352853359.649,9355200,36392,-19376,1581.338,1484.141,2.7439999999999998,2.8089999999999997
36017,1352853359.685,9355200,36382,-19359,1588.6170000000002,1356.364,2.7060000000000004,2.779
36033,1352853359.73,9355200,36338,-19334,1653.473,1310.3039999999999,2.698,2.734
36049,1352853359.7710001,9355200,36301,-19311,1680.3120000000001,1238.202,2.701,2.678
36065,1352853359.807,9355200,36272,-19278,1671.529,1222.889,2.659,2.677
36082,1352853359.8439999,9355200,36263,-19247,1664.49,1165.673,2.571,2.585
36099,1352853359.8830001,9355200,36224,-19258,1652.469,1128.11,2.755,2.693
36116,1352853359.922,9355200,36162,-19264,1648.665,1172.0610000000001,2.8,2.755
36133,1352853359.962,9355200,36112,-19280,1643.309,1097.451,2.753,2.7089999999999996
36150,1352853360.0010002,9355200,36124,-19242,1670.19,1007.565,2.627,2.654
36167,1352853360.043,9355200,36072,-19253,1660.013,929.622,2.717,2.766
36184,1352853360.082,9355200,36027,-19257,1649.658,887.58,2.735,2.7910000000000004
36201,1352853360.122,9355200,35985,-19220,1656.3870000000002,957.275,2.7539999999999996,2.753
36218,1352853360.159,9355200,35953,-19224,1655.158,980.457,2.7969999999999997,2.7430000000000003
36235,1352853360.197,9355200,35913,-19221,1677.0529999999999,949.75,2.7489999999999997,2.7889999999999997
36252,1352853360.236,9355200,35870,-19184,1686.3239999999998,847.834,2.783,2.806
36268,1352853360.272,9355200,35817,-19231,1685.483,833.2710000000001,2.93,2.95
36285,1352853360.311,9355200,35778,-19256,1675.371,790.571,3.054,3.0060000000000002
36302,1352853360.349,9355200,35743,-19246,1666.9160000000002,802.3889999999999,3.005,2.987
36319,1352853360.3860002,9355200,35707,-19252,1650.0279999999998,834.174,3.0010000000000003,2.975
36336,1352853360.423,9355200,35678,-19246,1634.625,833.0419999999999,2.951,2.9560000000000004
36353,1352853360.466,9355200,35642,-19239,1631.109,850.39,2.947,2.995
36370,1352853360.503,9355200,35630,-19242,1626.16,846.2239999999999,3.032,3.057
36387,1352853360.54,9355200,35552,-19252,1654.921,917.107,3.108,3.117
36404,1352853360.579,9355200,35528,-19255,1654.227,921.3910000000001,3.141,3.134
36421,1352853360.6169999,9355200,35506,-19265,1650.9470000000001,902.046,-3.094,-3.1260000000000003
36438,1352853360.654,9355200,35472,-19272,1658.524,878.658,-3.072,-3.1069999999999998
36455,1352853360.69,9355200,35420,-19271,1662.65,898.669,-3.1180000000000003,-3.096
36472,1352853360.727,9355200,35400,-19266,1662.1760000000002,879.796,-3.122,-3.091
36489,1352853360.764,9355200,35386,-19279,1659.3039999999999,916.471,-3.009,-3.0039999999999996
36506,1352853360.8,9355200,35375,-19296,1676.0529999999999,876.8330000000001,-3.01,-2.991
36523,1352853360.839,9355200,35323,-19312,1696.32,939.7230000000001,-2.945,-2.968
36540,1352853360.8760002,9355200,35257,-19342,1717.507,999.3489999999999,-2.937,-2.95
36557,1352853360.913,9355200,35167,-19359,1733.236,1070.0839999999998,-2.94,-2.966
36574,1352853360.951,9355200,35092,-19347,1744.685,1067.515,-2.946,-3.0210000000000004
36591,1352853360.987,9355200,35047,-19370,1746.2879999999998,1145.106,-2.885,-2.9130000000000003
36608,1352853361.023,9355200,34988,-19378,1754.628,1142.127,-2.787,-2.8710000000000004
36625,1352853361.06,9355200,34949,-19385,1757.3329999999999,1157.1480000000001,-2.707,-2.863
36642,1352853361.095,9355200,34933,-19388,1752.5439999999999,1170.14,-2.611,-2.846
36659,1352853361.128,9355200,34950,-19387,1736.652,1203.114,-2.7119999999999997,-2.795
36676,1352853361.162,9355200,34868,-19415,1752.455,1203.8239999999998,-2.69,-2.806
36693,1352853361.206,9355200,34848,-19434,1754.5829999999999,1088.779,-2.674,-2.8160000000000003
36710,1352853361.2389998,9355200,34843,-19442,1757.0529999999999,1014.393,-2.7110000000000003,-2.83
36727,1352853361.272,9355200,34773,-19438,1754.483,1132.088,-2.695,-2.8339999999999996
36743,1352853361.305,9355200,34686,-19430,1755.3120000000001,1300.386,-2.681,-2.839
36759,1352853361.338,9355200,34618,-19424,1755.496,1313.098,-2.7260000000000004,-2.842
36776,1352853361.371,9355200,34589,-19400,1754.5120000000002,1247.8010000000002,-2.812,-2.905
36793,1352853361.408,9355200,34584,-19370,1752.599,1036.154,-2.89,-2.9930000000000003
36810,1352853361.441,9355200,34573,-19340,1748.3139999999999,935.321,-2.967,-3.037
