,time,id,x,y,z,velocity,angle of motion,facing angle
39723,1352853369.236,9360901,-6335,5770,1470.746,1267.137,2.6519999999999997,0.0
39736,1352853369.274,9360901,-6334,5770,1470.746,1260.629,2.6660000000000004,2.971
39749,1352853369.311,9360901,-6376,5792,1507.753,1209.5919999999999,2.647,2.6889999999999996
39762,1352853369.35,9360901,-6406,5805,1513.507,1194.076,2.67,2.74
39775,1352853369.388,9360901,-6437,5837,1533.757,1223.057,2.625,2.696
39788,1352853369.427,9360901,-6473,5852,1534.737,1224.731,2.6830000000000003,2.715
39801,1352853369.465,9360901,-6518,5871,1534.9460000000001,1245.943,2.668,2.7089999999999996
39814,1352853369.5010002,9360901,-6565,5887,1586.49,1233.992,2.71,2.763
39827,1352853369.537,9360901,-6610,5903,1593.631,1261.53,2.694,2.786
39840,1352853369.574,9360901,-6658,5921,1451.737,1209.6,2.7119999999999997,2.773
39853,1352853369.611,9360901,-6700,5930,1366.888,1190.4289999999999,2.716,2.77
39866,1352853369.647,9360901,-6718,5936,1319.865,1128.724,2.622,2.727
39879,1352853369.682,9360901,-6750,5939,1293.808,996.27,2.674,2.7239999999999998
39892,1352853369.72,9360901,-6791,5947,1305.428,978.044,2.658,2.76
39905,1352853369.7580001,9360901,-6843,5948,1312.139,1015.38,2.7119999999999997,2.805
39919,1352853369.798,9360901,-6872,5939,1316.0810000000001,986.937,2.7710000000000004,2.8280000000000003
39933,1352853369.836,9360901,-6913,5947,1352.576,935.079,2.779,2.892
39947,1352853369.8760002,9360901,-6945,5949,1372.451,927.049,2.785,2.861
39961,1352853369.913,9360901,-6980,5955,1404.361,969.972,2.7760000000000002,2.8489999999999998
39975,1352853369.957,9360901,-7040,5982,1459.082,998.946,2.7560000000000002,2.823
39989,1352853369.996,9360901,-7087,6009,1480.646,985.197,2.8080000000000003,2.886
40003,1352853370.035,9360901,-7118,6032,1487.4229999999998,981.93,2.778,2.86
40017,1352853370.073,9360901,-7163,6063,1522.405,988.028,2.766,2.822
40031,1352853370.113,9360901,-7215,6093,1531.97,1083.434,2.763,2.784
40045,1352853370.15,9360901,-7241,6111,1534.316,1060.077,2.742,2.722
40059,1352853370.189,9360901,-7280,6139,1568.3329999999999,1043.537,2.693,2.742
40073,1352853370.227,9360901,-7331,6175,1599.02,1017.6,2.677,2.793
40087,1352853370.264,9360901,-7378,6192,1606.95,1040.935,2.7039999999999997,2.8089999999999997
40101,1352853370.302,9360901,-7415,6204,1449.307,1069.402,2.7939999999999996,2.8680000000000003
40115,1352853370.338,9360901,-7442,6208,1359.388,1025.255,2.826,2.895
40129,1352853370.3730001,9360901,-7466,6216,1311.8370000000002,1008.4580000000001,2.7680000000000002,2.84
40143,1352853370.41,9360901,-7492,6228,1305.226,1032.096,2.745,2.806
40157,1352853370.446,9360901,-7534,6250,1301.39,1022.2810000000001,2.7439999999999998,2.855
40171,1352853370.485,9360901,-7573,6246,1326.536,973.008,2.8480000000000003,2.931
40185,1352853370.522,9360901,-7604,6215,1333.545,904.6260000000001,2.986,3.03
40199,1352853370.559,9360901,-7647,6250,1357.87,973.952,2.906,2.903
40213,1352853370.5939999,9360901,-7682,6274,1375.874,1007.8480000000001,2.803,2.823
40227,1352853370.6330001,9360901,-7746,6354,1432.309,1144.154,2.734,2.7880000000000003
40241,1352853370.673,9360901,-7795,6423,1465.559,1208.396,2.713,2.7230000000000003
40255,1352853370.713,9360901,-7840,6543,1494.213,1246.432,2.575,2.608
40269,1352853370.75,9360901,-7869,6610,1510.473,1348.076,2.464,2.512
40283,1352853370.786,9360901,-7902,6650,1530.1729999999998,1319.4070000000002,2.4419999999999997,2.481
40297,1352853370.822,9360901,-7934,6691,1542.0220000000002,1362.629,2.428,2.472
40311,1352853370.8569999,9360901,-7956,6701,1549.146,1291.382,2.468,2.469
40325,1352853370.895,9360901,-8007,6739,1582.3870000000002,1293.6019999999999,2.411,2.4459999999999997
40339,1352853370.932,9360901,-8059,6763,1594.639,1255.85,2.408,2.458
40353,1352853370.97,9360901,-8084,6807,1474.414,1188.803,2.37,2.4659999999999997
40367,1352853371.01,9360901,-8094,6854,1411.586,1118.246,2.371,2.484
40381,1352853371.047,9360901,-8100,6920,1398.871,1124.427,2.353,2.483
40395,1352853371.082,9360901,-8123,6945,1392.4520000000002,1167.902,2.378,2.488
40409,1352853371.118,9360901,-8149,6968,1387.868,1142.099,2.4290000000000003,2.517
40423,1352853371.152,9360901,-8211,6878,1391.0829999999999,1064.265,2.5789999999999997,2.6510000000000002
40437,1352853371.187,9360901,-8201,6924,1424.8770000000002,1053.224,2.58,2.6639999999999997
40451,1352853371.22,9360901,-8215,6946,1457.8629999999998,981.3960000000001,2.6489999999999996,2.7
40465,1352853371.254,9360901,-8239,6979,1515.375,1031.48,2.574,2.707
40479,1352853371.292,9360901,-8286,7012,1563.158,1088.66,2.653,2.688
40493,1352853371.327,9360901,-8330,7071,1576.704,1236.4089999999999,2.6639999999999997,2.695
40507,1352853371.362,9360901,-8379,7145,1561.836,1390.058,2.583,2.6710000000000003
40521,1352853371.402,9360901,-8434,7173,1562.086,1327.351,2.627,2.676
40535,1352853371.438,9360901,-8484,7187,1560.481,1396.608,2.603,2.714
40549,1352853371.476,9360901,-8559,7259,1608.0479999999998,1574.819,2.5869999999999997,2.656
40563,1352853371.513,9360901,-8608,7290,1621.271,1511.674,2.46,2.6069999999999998
40577,1352853371.549,9360901,-8643,7319,1625.747,1490.461,2.496,2.5660000000000003
40591,1352853371.586,9360901,-8657,7337,1627.0320000000002,1464.5810000000001,2.481,2.5980000000000003
40605,1352853371.621,9360901,-8665,7350,1626.62,1478.662,2.515,2.6310000000000002
40619,1352853371.657,9360901,-8714,7398,1664.418,1521.652,2.589,2.6069999999999998
40633,1352853371.694,9360901,-8741,7414,1536.585,1507.8039999999999,2.594,2.613
40647,1352853371.733,9360901,-8784,7443,1509.4260000000002,1523.5610000000001,2.553,2.638
40661,1352853371.77,9360901,-8811,7459,1527.435,1476.71,2.529,2.636
40675,1352853371.81,9360901,-8834,7487,1539.503,1504.108,2.516,2.61
40689,1352853371.846,9360901,-8856,7502,1540.2079999999999,1510.115,2.531,2.6
40703,1352853371.882,9360901,-8891,7540,1559.641,1486.076,2.498,2.5660000000000003
40717,1352853371.919,9360901,-8916,7574,1562.611,1400.74,2.478,2.521
40731,1352853371.957,9360901,-8942,7612,1600.047,1336.839,2.423,2.459
40745,1352853371.9919999,9360901,-8972,7650,1619.086,1423.007,2.385,2.4090000000000003
40759,1352853372.029,9360901,-9007,7687,1633.0510000000002,1442.015,2.4090000000000003,2.373
40773,1352853372.066,9360901,-9034,7739,1578.124,1484.26,2.354,2.333
40787,1352853372.1039999,9360901,-9049,7794,1591.825,1446.221,2.292,2.314
40801,1352853372.144,9360901,-9080,7836,1592.779,1411.036,2.322,2.3209999999999997
40815,1352853372.179,9360901,-9128,7863,1652.683,1390.1229999999998,2.313,2.362
40829,1352853372.217,9360901,-9175,7895,1658.043,1349.273,2.327,2.385
40842,1352853372.256,9360901,-9207,7928,1635.48,1276.3519999999999,2.314,2.359
40855,1352853372.293,9360901,-9217,7956,1548.2079999999999,1254.117,2.362,2.37
40868,1352853372.331,9360901,-9216,7979,1542.84,1215.644,2.249,2.3280000000000003
40881,1352853372.3669999,9360901,-9227,7984,1350.942,1130.3410000000001,2.293,2.313
40894,1352853372.402,9360901,-9233,7993,1330.588,1041.593,2.325,2.338
40907,1352853372.44,9360901,-9246,8015,1348.104,1010.757,2.3569999999999998,2.3569999999999998
40920,1352853372.4789999,9360901,-9283,8044,1508.506,1085.778,2.366,2.3609999999999998
40933,1352853372.515,9360901,-9308,8074,1549.477,1097.542,2.3080000000000003,2.3409999999999997
40946,1352853372.552,9360901,-9323,8104,1581.789,1085.899,2.339,2.3409999999999997
40959,1352853372.59,9360901,-9369,8140,1553.634,1079.4360000000001,2.315,2.3369999999999997
40972,1352853372.6260002,9360901,-9410,8188,1576.401,1146.558,2.339,2.323
40985,1352853372.664,9360901,-9473,8238,1589.918,1208.125,2.3480000000000003,2.331
40998,1352853372.701,9360901,-9511,8285,1602.162,1155.441,2.305,2.326
41011,1352853372.736,9360901,-9547,8339,1620.2179999999998,1169.989,2.255,2.356
41024,1352853372.772,9360901,-9572,8358,1544.776,1183.792,2.338,2.377
41037,1352853372.807,9360901,-9602,8375,1500.59,1148.855,2.363,2.386
41050,1352853372.847,9360901,-9643,8420,1479.6629999999998,1122.4160000000002,2.379,2.423
41063,1352853372.8839998,9360901,-9671,8465,1432.898,1185.494,2.356,2.419
41076,1352853372.922,9360901,-9720,8513,1434.776,1234.744,2.4419999999999997,2.438
41089,1352853372.961,9360901,-9777,8572,1438.682,1274.27,2.4619999999999997,2.452
41102,1352853372.9989998,9360901,-9817,8598,1457.0720000000001,1230.632,2.49,2.461
41115,1352853373.036,9360901,-9861,8626,1485.53,1169.202,2.543,2.4619999999999997
41128,1352853373.071,9360901,-9876,8654,1489.995,1119.981,2.438,2.391
41141,1352853373.106,9360901,-9890,8677,1514.8010000000002,1056.657,2.383,2.339
41154,1352853373.144,9360901,-9929,8705,1510.5539999999999,1093.721,2.397,2.322
41167,1352853373.182,9360901,-9963,8743,1438.4,1109.26,2.315,2.312
41180,1352853373.22,9360901,-9984,8772,1427.489,1094.205,2.311,2.3209999999999997
41193,1352853373.257,9360901,-9971,8771,1404.595,1019.062,2.3040000000000003,2.2880000000000003
41206,1352853373.295,9360901,-9936,8760,1376.781,931.561,2.194,2.176
41219,1352853373.331,9360901,-9954,8784,1449.296,878.523,2.19,2.197
41233,1352853373.37,9360901,-9990,8813,1570.9279999999999,927.278,2.23,2.239
41247,1352853373.409,9360901,-10048,8864,1586.0729999999999,1026.552,2.249,2.2569999999999997
41261,1352853373.446,9360901,-10095,8892,1585.441,1020.845,2.221,2.241
41275,1352853373.483,9360901,-10136,8932,1482.5829999999999,1016.665,2.1959999999999997,2.246
41289,1352853373.519,9360901,-10129,8954,1354.85,954.485,2.144,2.184
41303,1352853373.558,9360901,-10126,8974,1327.136,901.883,2.077,2.17
41317,1352853373.598,9360901,-10142,9003,1292.982,912.79,2.065,2.17
41331,1352853373.635,9360901,-10167,9035,1282.1019999999999,918.441,2.099,2.162
41345,1352853373.674,9360901,-10205,9098,1427.1070000000002,941.742,2.106,2.16
41359,1352853373.713,9360901,-10246,9161,1474.021,1019.048,2.128,2.168
41373,1352853373.7519999,9360901,-10270,9187,1497.838,1007.802,2.112,2.1790000000000003
41387,1352853373.79,9360901,-10279,9225,1516.275,1086.474,2.0980000000000003,2.169
41401,1352853373.83,9360901,-10293,9285,1501.289,1110.677,2.069,2.117
41415,1352853373.868,9360901,-10307,9334,1515.014,1129.4260000000002,2.092,2.095
41429,1352853373.905,9360901,-10368,9379,1430.1779999999999,1189.377,2.148,2.125
41443,1352853373.943,9360901,-10423,9420,1463.6860000000001,1169.406,2.144,2.16
41457,1352853373.9819999,9360901,-10454,9470,1515.3470000000002,1182.818,2.169,2.174
41471,1352853374.022,9360901,-10478,9528,1546.217,1209.163,2.171,2.124
41485,1352853374.062,9360901,-10483,9573,1549.4070000000002,1111.877,2.1390000000000002,2.081
41499,1352853374.1039999,9360901,-10500,9634,1575.015,1070.742,2.055,2.0269999999999997
41513,1352853374.142,9360901,-10532,9693,1577.1789999999999,1158.989,2.052,2.001
41527,1352853374.18,9360901,-10543,9742,1547.501,1185.132,2.039,1.985
41541,1352853374.22,9360901,-10563,9782,1556.578,1176.306,2.0340000000000003,2.009
41554,1352853374.2580001,9360901,-10578,9797,1559.5439999999999,1172.8410000000001,2.002,2.026
41567,1352853374.296,9360901,-10607,9832,1475.983,1165.521,2.037,2.021
41580,1352853374.337,9360901,-10613,9869,1365.734,1218.254,2.048,1.9980000000000002
41593,1352853374.3769999,9360901,-10625,9920,1342.317,1167.114,2.01,1.9909999999999999
41606,1352853374.413,9360901,-10674,9969,1491.467,1216.028,2.053,2.015
41619,1352853374.452,9360901,-10724,10008,1550.745,1230.529,2.07,2.053
41632,1352853374.488,9360901,-10765,10029,1404.8329999999999,1265.6680000000001,2.053,2.06
41645,1352853374.528,9360901,-10785,10054,1389.861,1297.1019999999999,2.024,2.055
41658,1352853374.57,9360901,-10808,10090,1385.9920000000002,1261.0330000000001,2.044,2.088
41671,1352853374.609,9360901,-10824,10150,1365.4089999999999,1268.517,2.035,2.082
41684,1352853374.649,9360901,-10840,10202,1383.964,1215.573,2.0580000000000003,2.0669999999999997
41697,1352853374.686,9360901,-10857,10213,1369.9920000000002,1159.114,2.04,2.056
41710,1352853374.725,9360901,-10882,10242,1347.4160000000002,1159.3980000000001,2.093,2.035
41723,1352853374.765,9360901,-10889,10273,1361.4660000000001,1115.9089999999999,2.015,2.009
41736,1352853374.805,9360901,-10953,10302,1421.891,1140.356,2.063,2.072
41749,1352853374.845,9360901,-10988,10334,1466.8010000000002,1140.27,2.082,2.08
41762,1352853374.882,9360901,-11041,10382,1545.0179999999998,1164.725,2.134,2.0469999999999997
41776,1352853374.92,9360901,-11077,10434,1568.2160000000001,1164.5639999999999,2.1430000000000002,2.037
41790,1352853374.961,9360901,-11071,10470,1582.402,1169.786,2.12,1.99
41804,1352853374.9989998,9360901,-11048,10499,1364.004,1155.4669999999999,2.004,1.99
41818,1352853375.037,9360901,-11061,10535,1331.249,1154.143,1.973,2.021
41832,1352853375.079,9360901,-11082,10565,1338.4370000000001,1153.73,2.04,2.045
41846,1352853375.1169999,9360901,-11088,10595,1310.646,1111.229,2.069,2.072
41860,1352853375.158,9360901,-11097,10616,1368.3110000000001,1034.652,2.141,2.092
41874,1352853375.196,9360901,-11114,10691,1301.0639999999999,1116.66,2.045,2.04
41888,1352853375.234,9360901,-11132,10732,1290.221,1122.058,2.0580000000000003,2.066
41902,1352853375.275,9360901,-11151,10766,1287.163,1027.233,2.053,2.031
41916,1352853375.313,9360901,-11164,10791,1475.0810000000001,995.087,2.069,2.076
41930,1352853375.352,9360901,-11187,10801,1552.9779999999998,1012.182,2.122,2.113
41944,1352853375.3930001,9360901,-11230,10916,1460.879,1163.7160000000001,2.0269999999999997,1.9480000000000002
41958,1352853375.434,9360901,-11243,11006,1383.43,1193.072,1.915,1.855
41972,1352853375.474,9360901,-11263,11056,1375.611,1184.508,1.865,1.8130000000000002
41986,1352853375.5110002,9360901,-11311,11071,1394.6970000000001,1153.208,1.874,1.8530000000000002
42000,1352853375.55,9360901,-11336,11081,1406.08,1101.617,1.9269999999999998,1.905
42014,1352853375.588,9360901,-11368,11105,1397.457,1125.808,1.9469999999999998,1.922
42028,1352853375.629,9360901,-11387,11144,1390.634,1111.776,1.9269999999999998,1.9369999999999998
42042,1352853375.669,9360901,-11402,11170,1386.045,1108.645,1.97,1.945
42056,1352853375.707,9360901,-11421,11227,1333.4089999999999,1144.0410000000002,1.936,1.945
42070,1352853375.7480001,9360901,-11446,11271,1299.432,1106.212,1.899,1.932
42085,1352853375.785,9360901,-11459,11292,1280.4669999999999,1090.905,1.88,1.921
42100,1352853375.826,9360901,-11509,11373,1428.9979999999998,1224.405,1.916,1.936
42115,1352853375.868,9360901,-11561,11450,1565.3339999999998,1282.039,1.9180000000000001,1.964
42130,1352853375.9060001,9360901,-11598,11519,1484.5410000000002,1350.733,1.97,1.9969999999999999
42145,1352853375.947,9360901,-11611,11562,1467.315,1330.808,1.909,2.002
42160,1352853375.985,9360901,-11641,11579,1462.604,1326.981,2.008,2.0180000000000002
42175,1352853376.026,9360901,-11658,11620,1426.271,1247.62,2.064,2.006
42190,1352853376.066,9360901,-11678,11646,1419.741,1220.23,2.114,2.026
42205,1352853376.103,9360901,-11720,11685,1529.622,1233.984,2.122,2.073
42220,1352853376.141,9360901,-11765,11734,1577.7520000000002,1268.764,2.1109999999999998,2.055
42235,1352853376.179,9360901,-11821,11760,1594.09,1309.864,2.099,2.056
42250,1352853376.2189999,9360901,-11847,11796,1309.258,1274.5330000000001,2.109,2.036
42264,1352853376.257,9360901,-11856,11822,1264.603,1256.313,2.077,1.9969999999999999
42278,1352853376.293,9360901,-11884,11851,1253.81,1242.8410000000001,2.104,1.9969999999999999
42292,1352853376.331,9360901,-11933,11923,1345.9379999999999,1340.108,2.0980000000000003,2.02
42306,1352853376.371,9360901,-12013,11987,1464.3470000000002,1357.7879999999998,2.1069999999999998,2.076
42320,1352853376.411,9360901,-12039,12027,1453.963,1381.7879999999998,2.136,2.106
42334,1352853376.449,9360901,-12048,12060,1450.707,1356.68,2.115,2.072
42348,1352853376.4889998,9360901,-12043,12070,1450.348,1258.785,2.112,2.081
42362,1352853376.525,9360901,-12052,12098,1423.63,1170.198,2.032,2.0380000000000003
42376,1352853376.564,9360901,-12075,12137,1420.026,1089.771,2.043,2.045
42390,1352853376.606,9360901,-12101,12182,1391.412,1090.104,2.03,2.037
42404,1352853376.648,9360901,-12114,12227,1375.3870000000002,1119.901,2.062,2.055
42418,1352853376.686,9360901,-12131,12258,1366.6570000000002,1164.235,2.103,2.082
42432,1352853376.725,9360901,-12179,12302,1452.6689999999999,1225.184,2.113,2.122
42446,1352853376.767,9360901,-12224,12342,1487.4070000000002,1176.593,2.153,2.141
42460,1352853376.806,9360901,-12284,12394,1478.5910000000001,1264.135,2.2,2.18
42474,1352853376.8439999,9360901,-12323,12433,1477.348,1303.9260000000002,2.3,2.221
42488,1352853376.8839998,9360901,-12362,12457,1477.3129999999999,1280.422,2.314,2.245
42501,1352853376.924,9360901,-12426,12511,1616.8929999999998,1258.9289999999999,2.272,2.238
42514,1352853376.965,9360901,-12467,12560,1559.825,1242.5510000000002,2.1919999999999997,2.19
42527,1352853377.004,9360901,-12502,12611,1566.945,1255.714,2.157,2.144
42540,1352853377.043,9360901,-12511,12646,1430.672,1190.24,2.0980000000000003,2.115
42553,1352853377.082,9360901,-12507,12678,1408.42,1132.388,2.0340000000000003,2.076
42566,1352853377.12,9360901,-12512,12719,1378.2979999999998,1156.649,2.009,2.073
42579,1352853377.157,9360901,-12521,12750,1373.5079999999998,1106.133,2.024,2.105
42592,1352853377.193,9360901,-12519,12773,1373.336,1010.8939999999999,2.052,2.126
42605,1352853377.231,9360901,-12524,12779,1387.796,898.327,2.106,2.131
42618,1352853377.27,9360901,-12589,12805,1355.499,925.105,2.146,2.177
42631,1352853377.308,9360901,-12648,12837,1278.7089999999998,972.815,2.237,2.205
42644,1352853377.35,9360901,-12671,12851,1284.6760000000002,1019.7310000000001,2.213,2.237
42657,1352853377.39,9360901,-12669,12864,1287.386,907.1110000000001,2.142,2.228
42670,1352853377.427,9360901,-12748,12912,1399.5739999999998,1009.198,2.194,2.231
42683,1352853377.466,9360901,-12809,12953,1434.463,1081.644,2.25,2.249
42696,1352853377.504,9360901,-12870,12992,1443.2979999999998,1113.7910000000002,2.3569999999999998,2.269
42709,1352853377.545,9360901,-12900,13021,1365.76,1056.65,2.391,2.248
42722,1352853377.583,9360901,-12914,13058,1353.296,993.7439999999999,2.351,2.31
42735,1352853377.6230001,9360901,-12935,13092,1326.315,991.9839999999999,2.316,2.315
42748,1352853377.661,9360901,-12958,13101,1314.395,966.309,2.294,2.343
42761,1352853377.7,9360901,-12961,13127,1333.184,1003.684,2.272,2.292
42774,1352853377.7389998,9360901,-12980,13179,1313.39,967.17,2.282,2.267
42787,1352853377.778,9360901,-12970,13224,1319.99,945.9860000000001,2.224,2.1959999999999997
42800,1352853377.818,9360901,-12985,13272,1267.701,915.8960000000001,2.16,2.182
42813,1352853377.8569999,9360901,-13009,13320,1270.731,986.456,2.178,2.168
42826,1352853377.8960001,9360901,-13034,13359,1269.6660000000002,961.618,2.1959999999999997,2.185
42839,1352853377.933,9360901,-13085,13381,1365.421,968.112,2.274,2.178
42852,1352853377.971,9360901,-13158,13410,1411.66,1117.126,2.27,2.194
42865,1352853378.013,9360901,-13180,13465,1230.75,1201.978,2.2119999999999997,2.1919999999999997
42878,1352853378.053,9360901,-13174,13517,1200.239,1171.087,2.1630000000000003,2.2119999999999997
42891,1352853378.0939999,9360901,-13187,13548,1193.81,1139.9489999999998,2.178,2.234
42904,1352853378.138,9360901,-13225,13615,1412.9160000000002,1175.096,2.228,2.287
42917,1352853378.176,9360901,-13249,13642,1435.6660000000002,1131.472,2.261,2.323
42930,1352853378.215,9360901,-13281,13692,1455.422,1188.474,2.231,2.306
42943,1352853378.253,9360901,-13316,13723,1454.715,1159.145,2.3,2.32
42956,1352853378.289,9360901,-13348,13748,1455.579,1053.0430000000001,2.2840000000000003,2.349
42969,1352853378.327,9360901,-13403,13809,1542.61,1129.265,2.318,2.312
42983,1352853378.368,9360901,-13448,13870,1565.139,1170.872,2.282,2.332
42997,1352853378.405,9360901,-13476,13913,1580.7910000000002,1164.391,2.242,2.3169999999999997
43011,1352853378.443,9360901,-13491,13935,1479.818,1120.64,2.2569999999999997,2.298
43025,1352853378.481,9360901,-13497,13954,1458.785,1034.542,2.271,2.281
43039,1352853378.519,9360901,-13514,13989,1460.211,1050.526,2.327,2.307
43053,1352853378.556,9360901,-13563,14023,1503.693,1072.934,2.397,2.354
