,time,id,x,y,z,velocity,angle of motion,facing angle
45660,1352853385.437,9362500,-6556,2922,1448.756,1399.0729999999999,3.048,0.0
45676,1352853385.478,9362500,-6556,2922,1450.785,1397.5629999999999,3.0260000000000002,2.83
45692,1352853385.5180001,9362500,-6612,2916,1479.71,1321.2479999999998,-3.1260000000000003,-3.102
45708,1352853385.559,9362500,-6666,2918,1491.6689999999999,1229.873,-3.0839999999999996,-3.1060000000000003
45724,1352853385.599,9362500,-6716,2917,1560.4270000000001,1206.445,-3.139,-3.1039999999999996
45740,1352853385.64,9362500,-6786,2934,1576.7179999999998,1243.11,3.077,3.095
45756,1352853385.683,9362500,-6841,2967,1607.9589999999998,1275.987,2.91,2.985
45772,1352853385.724,9362500,-6910,2998,1614.725,1335.4289999999999,2.779,2.8939999999999997
45788,1352853385.7610002,9362500,-6968,3033,1615.889,1393.629,2.81,2.864
45804,1352853385.799,9362500,-7011,3049,1616.9579999999999,1315.398,2.79,2.9
45820,1352853385.838,9362500,-7066,3068,1531.53,1312.965,2.7260000000000004,2.8739999999999997
45836,1352853385.879,9362500,-7097,3087,1479.521,1302.336,2.733,2.897
45852,1352853385.919,9362500,-7103,3067,1458.332,1217.975,2.778,2.8819999999999997
45868,1352853385.958,9362500,-7108,3046,1448.671,1127.847,2.8689999999999998,2.8739999999999997
45884,1352853385.996,9362500,-7126,3040,1451.217,1134.1,2.927,2.9410000000000003
45900,1352853386.034,9362500,-7167,3048,1471.34,1056.514,2.94,2.985
45916,1352853386.071,9362500,-7198,3046,1473.735,1040.6889999999999,2.998,3.0380000000000003
45932,1352853386.111,9362500,-7225,3055,1482.4470000000001,995.165,2.94,2.995
45947,1352853386.152,9362500,-7273,3025,1524.661,933.14,3.051,3.069
45962,1352853386.192,9362500,-7308,3007,1551.276,901.403,3.0810000000000004,3.123
45977,1352853386.23,9362500,-7356,2984,1571.229,946.512,-3.052,-3.06
45992,1352853386.267,9362500,-7394,2941,1590.3,960.436,-2.977,-2.975
46007,1352853386.305,9362500,-7445,2936,1604.0410000000002,960.505,-2.977,-2.9730000000000003
46022,1352853386.342,9362500,-7433,2941,1556.223,877.23,-3.008,-3.0260000000000002
46037,1352853386.3830001,9362500,-7441,2935,1520.704,856.678,-3.0460000000000003,-3.0460000000000003
46052,1352853386.425,9362500,-7434,2965,1508.381,729.945,-3.022,-3.1039999999999996
46067,1352853386.467,9362500,-7489,3000,1475.941,738.1239999999999,3.0610000000000004,3.042
46082,1352853386.5080001,9362500,-7575,3029,1465.368,745.816,2.826,2.784
46097,1352853386.55,9362500,-7611,3052,1470.223,738.701,2.682,2.656
46112,1352853386.59,9362500,-7917,2724,1491.624,1064.664,-2.8569999999999998,-3.023
46127,1352853386.629,9362500,-8000,2652,1512.0510000000002,1007.518,-2.863,-2.932
46142,1352853386.67,9362500,-7877,3038,1401.125,1191.152,2.778,2.8989999999999996
46157,1352853386.708,9362500,-7922,3048,1317.5529999999999,1172.8319999999999,2.846,2.9
46172,1352853386.7480001,9362500,-7991,3035,1314.6170000000002,1237.545,2.99,3.073
46186,1352853386.788,9362500,-8067,3013,1315.009,1215.63,3.0989999999999998,-3.088
46199,1352853386.829,9362500,-8134,3004,1314.523,1222.596,-3.0580000000000003,-3.0410000000000004
46212,1352853386.865,9362500,-8185,3001,1318.691,1237.861,-3.0860000000000003,-3.08
46225,1352853386.9060001,9362500,-8274,2942,1347.977,1329.7220000000002,-2.875,-2.906
46238,1352853386.948,9362500,-8350,2930,1375.7920000000001,1392.286,-2.867,-2.872
46251,1352853386.985,9362500,-8411,2923,1397.6470000000002,1363.441,-2.9210000000000003,-2.886
46263,1352853387.026,9362500,-8487,2916,1428.4370000000001,1439.5729999999999,-2.8710000000000004,-2.8510000000000004
46275,1352853387.066,9362500,-8580,2902,1456.717,1541.951,-2.8569999999999998,-2.8160000000000003
46287,1352853387.1039999,9362500,-8689,2926,1534.2939999999999,1567.523,-2.9189999999999996,-2.846
46299,1352853387.1430001,9362500,-8773,2932,1581.88,1608.525,-2.844,-2.833
46311,1352853387.184,9362500,-8861,2908,1622.477,1725.652,-2.748,-2.7889999999999997
46323,1352853387.226,9362500,-8941,2875,1636.682,1732.4089999999999,-2.7089999999999996,-2.7689999999999997
46335,1352853387.2680001,9362500,-9026,2848,1261.254,1695.527,-2.739,-2.793
46347,1352853387.308,9362500,-9106,2825,1128.5739999999998,1703.3370000000002,-2.773,-2.767
46359,1352853387.349,9362500,-9173,2815,1215.731,1625.6429999999998,-2.822,-2.8160000000000003
46371,1352853387.389,9362500,-9210,2809,1268.765,1571.207,-2.784,-2.807
46383,1352853387.429,9362500,-9266,2818,1345.485,1526.545,-2.8360000000000003,-2.9160000000000004
46395,1352853387.4689999,9362500,-9321,2844,1405.751,1464.389,-2.908,-3.033
46407,1352853387.51,9362500,-9420,2852,1541.224,1471.9879999999998,-2.995,-3.092
46419,1352853387.551,9362500,-9476,2887,1586.4279999999999,1437.9470000000001,-3.094,3.103
46431,1352853387.589,9362500,-9544,2903,1621.8870000000002,1459.372,-3.117,3.1
46443,1352853387.628,9362500,-9611,2926,1632.957,1452.0720000000001,3.082,3.088
46455,1352853387.665,9362500,-9661,2946,1510.467,1418.8829999999998,3.037,3.055
46467,1352853387.703,9362500,-9696,2975,1443.055,1371.703,2.9619999999999997,2.984
46479,1352853387.7419999,9362500,-9745,3011,1452.568,1340.592,2.8160000000000003,2.906
46491,1352853387.78,9362500,-9782,3041,1456.6989999999998,1336.485,2.787,2.8510000000000004
46503,1352853387.819,9362500,-9869,3034,1562.749,1415.0870000000002,2.795,2.8680000000000003
46515,1352853387.8569999,9362500,-9932,3040,1567.997,1431.0320000000002,2.8510000000000004,2.878
46527,1352853387.894,9362500,-9988,3061,1567.83,1441.366,2.7889999999999997,2.8289999999999997
46539,1352853387.93,9362500,-10035,3075,1530.662,1425.265,2.7960000000000003,2.85
46551,1352853387.968,9362500,-10071,3087,1531.487,1387.351,2.737,2.806
46563,1352853388.0110002,9362500,-10115,3097,1526.876,1350.654,2.7710000000000004,2.813
46576,1352853388.05,9362500,-10143,3094,1528.04,1277.982,2.7739999999999996,2.8569999999999998
46589,1352853388.087,9362500,-10175,3116,1318.473,1206.442,2.742,2.833
46602,1352853388.1260002,9362500,-10235,3125,1268.1989999999998,1153.953,2.715,2.84
46615,1352853388.164,9362500,-10264,3133,1501.8570000000002,1037.13,2.654,2.772
46628,1352853388.201,9362500,-10275,3141,1538.537,965.617,2.568,2.78
46641,1352853388.2410002,9362500,-10324,3153,1521.852,1000.7739999999999,2.717,2.8560000000000003
46654,1352853388.28,9362500,-10374,3146,1536.969,1013.99,2.8289999999999997,2.972
46667,1352853388.32,9362500,-10412,3126,1574.88,984.857,3.005,3.105
46680,1352853388.36,9362500,-10459,3112,1574.975,1060.702,3.1210000000000004,3.137
46693,1352853388.398,9362500,-10498,3094,1582.7379999999998,1103.921,-3.04,-3.049
46706,1352853388.435,9362500,-10544,3081,1642.5970000000002,1134.904,-3.043,-3.095
46719,1352853388.473,9362500,-10610,3064,1588.214,1141.8519999999999,-3.0660000000000003,-3.114
46732,1352853388.512,9362500,-10664,3048,1572.2520000000002,1121.782,3.14,3.137
46745,1352853388.554,9362500,-10736,3022,1503.414,1263.9080000000001,-3.065,3.136
46758,1352853388.5939999,9362500,-10796,3002,1514.3110000000001,1297.9360000000001,-3.094,-3.12
46771,1352853388.635,9362500,-10890,2991,1634.783,1315.745,-3.1210000000000004,-3.0980000000000003
46784,1352853388.671,9362500,-10957,2977,1655.874,1336.121,3.137,-3.1010000000000004
46797,1352853388.711,9362500,-10996,2998,1573.598,1235.7060000000001,3.092,3.1260000000000003
46810,1352853388.7519999,9362500,-11053,3026,1480.1270000000002,1211.678,2.985,3.049
46823,1352853388.79,9362500,-11067,3066,1468.255,1148.0,3.0039999999999996,3.051
46836,1352853388.83,9362500,-11110,3089,1518.4720000000002,1104.471,2.9389999999999996,3.035
46849,1352853388.87,9362500,-11130,3114,1519.723,1072.889,2.889,2.9819999999999998
46862,1352853388.91,9362500,-11167,3139,1589.817,1062.608,2.877,2.951
46875,1352853388.95,9362500,-11235,3161,1616.227,1099.229,2.93,2.9760000000000004
46888,1352853388.9889998,9362500,-11292,3156,1648.5220000000002,1132.7,2.9410000000000003,2.9930000000000003
46901,1352853389.029,9362500,-11346,3155,1668.031,1142.374,2.964,2.997
46914,1352853389.07,9362500,-11416,3143,1688.3570000000002,1171.726,3.037,3.049
46927,1352853389.106,9362500,-11478,3126,1686.164,1272.028,3.109,3.054
46940,1352853389.1460001,9362500,-11542,3113,1517.9920000000002,1336.725,3.133,3.0780000000000003
46953,1352853389.185,9362500,-11586,3095,1458.0620000000001,1305.493,-3.113,3.113
46966,1352853389.225,9362500,-11645,3061,1525.17,1310.8729999999998,-3.051,-3.0660000000000003
46979,1352853389.262,9362500,-11717,3054,1590.2120000000002,1341.682,-2.985,-3.037
46992,1352853389.301,9362500,-11783,3026,1629.2079999999999,1399.8229999999999,-2.935,-2.975
47005,1352853389.341,9362500,-11853,3001,1612.2939999999999,1438.985,-2.8569999999999998,-2.95
47018,1352853389.382,9362500,-11898,2985,1480.009,1347.3310000000001,-2.8369999999999997,-2.915
47031,1352853389.422,9362500,-11954,2965,1498.5439999999999,1352.736,-2.8289999999999997,-2.8680000000000003
47044,1352853389.461,9362500,-12013,2944,1558.7920000000001,1345.151,-2.802,-2.8689999999999998
47056,1352853389.505,9362500,-12065,2932,1582.1729999999998,1345.249,-2.803,-2.855
47068,1352853389.545,9362500,-12064,2956,1556.866,1197.767,-2.779,-2.861
47080,1352853389.583,9362500,-12109,2982,1563.7179999999998,1160.175,-2.888,-2.92
47092,1352853389.6230001,9362500,-12189,2950,1644.047,1254.785,-2.963,-3.0069999999999997
47104,1352853389.6660001,9362500,-12267,2941,1666.406,1303.1789999999999,-3.094,-3.0989999999999998
47116,1352853389.706,9362500,-12337,2947,1621.396,1378.509,3.092,-3.069
47128,1352853389.745,9362500,-12411,2983,1590.23,1526.9279999999999,2.987,3.1010000000000004
47140,1352853389.7810001,9362500,-12489,3022,1626.226,1580.401,2.8989999999999996,3.01
47152,1352853389.82,9362500,-12552,3072,1626.164,1590.106,2.8089999999999997,2.946
47165,1352853389.862,9362500,-12623,3117,1648.72,1678.079,2.7689999999999997,2.909
47178,1352853389.901,9362500,-12684,3139,1650.239,1721.138,2.8160000000000003,2.883
47191,1352853389.941,9362500,-12751,3168,1650.884,1698.621,2.84,2.891
47204,1352853389.98,9362500,-12810,3192,1655.954,1672.465,2.863,2.9010000000000002
47217,1352853390.02,9362500,-12863,3186,1608.162,1600.205,2.957,2.951
47230,1352853390.057,9362500,-12919,3196,1621.8210000000001,1605.914,2.987,2.9760000000000004
47243,1352853390.099,9362500,-12949,3195,1622.606,1510.0020000000002,2.968,2.969
47256,1352853390.139,9362500,-13010,3192,1642.3029999999999,1547.376,2.9739999999999998,2.968
47269,1352853390.178,9362500,-13051,3198,1643.415,1490.776,2.9610000000000003,2.983
47282,1352853390.218,9362500,-13100,3207,1615.8629999999998,1479.636,2.895,2.9189999999999996
47295,1352853390.256,9362500,-13134,3243,1579.45,1411.719,2.7910000000000004,2.852
47308,1352853390.297,9362500,-13178,3264,1545.364,1387.286,2.7489999999999997,2.801
47321,1352853390.337,9362500,-13224,3284,1497.6889999999999,1381.662,2.7089999999999996,2.787
47334,1352853390.375,9362500,-13283,3280,1580.5870000000002,1279.1660000000002,2.79,2.825
47347,1352853390.41,9362500,-13297,3246,1595.764,1158.704,2.8989999999999996,2.9560000000000004
47361,1352853390.45,9362500,-13346,3238,1553.443,1156.335,2.87,2.927
47375,1352853390.4889998,9362500,-13376,3243,1546.317,1122.511,2.8789999999999996,2.8960000000000004
47389,1352853390.528,9362500,-13380,3240,1546.033,1014.0210000000001,2.845,2.906
47404,1352853390.566,9362500,-13432,3224,1498.316,987.336,2.938,2.991
47419,1352853390.605,9362500,-13466,3174,1558.809,847.801,3.0810000000000004,3.1010000000000004
47434,1352853390.6430001,9362500,-13556,3137,1645.636,843.48,-3.025,-3.04
47449,1352853390.684,9362500,-13609,3113,1580.908,923.827,-3.043,-3.0789999999999997
47464,1352853390.721,9362500,-13656,3092,1567.973,939.6410000000001,-3.0580000000000003,-3.093
47479,1352853390.76,9362500,-13702,3093,1551.651,962.169,-3.08,-3.097
47495,1352853390.797,9362500,-13754,3104,1522.743,1012.252,-3.1319999999999997,-3.1060000000000003
47511,1352853390.837,9362500,-13787,3124,1374.249,1018.299,-3.105,-3.1060000000000003
47527,1352853390.8769999,9362500,-13824,3140,1494.128,997.505,3.111,3.093
47543,1352853390.915,9362500,-13868,3154,1505.991,969.295,3.037,3.0380000000000003
47559,1352853390.953,9362500,-13940,3190,1576.87,1047.642,2.859,2.93
47575,1352853390.99,9362500,-14001,3207,1590.194,1036.335,2.8,2.8760000000000003
47590,1352853391.036,9362500,-14050,3256,1594.987,1037.905,2.7680000000000002,2.8310000000000004
47605,1352853391.075,9362500,-14097,3266,1594.721,975.539,2.8,2.846
47620,1352853391.1139998,9362500,-14154,3293,1619.99,949.444,2.6839999999999997,2.7739999999999996
47635,1352853391.152,9362500,-14207,3311,1603.1729999999998,981.398,2.7319999999999998,2.784
47650,1352853391.192,9362500,-14250,3327,1633.368,1020.065,2.7510000000000003,2.835
47665,1352853391.23,9362500,-14304,3352,1634.105,1078.491,2.715,2.7880000000000003
47680,1352853391.27,9362500,-14376,3356,1574.374,1152.384,2.784,2.819
47695,1352853391.309,9362500,-14437,3369,1560.088,1172.697,2.81,2.846
47710,1352853391.352,9362500,-14524,3378,1578.151,1282.495,2.7960000000000003,2.892
47725,1352853391.39,9362500,-14600,3362,1577.681,1350.281,2.859,2.947
47740,1352853391.428,9362500,-14677,3319,1591.487,1435.874,2.9360000000000004,2.985
47755,1352853391.466,9362500,-14754,3254,1575.141,1506.352,3.0410000000000004,3.1069999999999998
47770,1352853391.507,9362500,-14809,3239,1571.4920000000002,1432.865,2.984,3.037
47785,1352853391.547,9362500,-14850,3226,1563.844,1415.967,2.8810000000000002,2.9610000000000003
47800,1352853391.586,9362500,-14901,3238,1530.3010000000002,1400.2979999999998,2.858,2.9339999999999997
47815,1352853391.628,9362500,-14961,3253,1540.535,1421.4589999999998,2.878,2.932
47830,1352853391.671,9362500,-15026,3276,1577.9589999999998,1440.455,2.83,2.875
47845,1352853391.71,9362500,-15078,3292,1569.5279999999998,1397.043,2.8939999999999997,2.8560000000000003
47860,1352853391.7510002,9362500,-15128,3304,1538.068,1365.9160000000002,2.8819999999999997,2.8819999999999997
47875,1352853391.793,9362500,-15182,3314,1459.759,1402.6370000000002,2.952,2.9330000000000003
47890,1352853391.83,9362500,-15234,3313,1470.7920000000001,1431.464,2.9760000000000004,2.9930000000000003
47905,1352853391.8730001,9362500,-15288,3340,1372.4229999999998,1477.6970000000001,2.903,2.909
47920,1352853391.912,9362500,-15335,3350,1397.665,1426.8120000000001,2.9339999999999997,2.929
47935,1352853391.95,9362500,-15443,3303,1520.1129999999998,1499.34,3.112,3.0810000000000004
47950,1352853391.9910002,9362500,-15520,3273,1550.6770000000001,1429.9520000000002,-3.05,-3.0780000000000003
47965,1352853392.0310001,9362500,-15577,3276,1592.3110000000001,1484.391,-2.9610000000000003,-3.0239999999999996
47980,1352853392.074,9362500,-15633,3296,1565.001,1419.194,-3.014,-3.062
47995,1352853392.112,9362500,-15653,3292,1555.1129999999998,1337.0279999999998,-2.9730000000000003,-3.012
48010,1352853392.15,9362500,-15683,3286,1554.138,1283.164,-2.985,-2.9819999999999998
48025,1352853392.19,9362500,-15739,3299,1607.682,1203.086,-3.0,-3.017
48040,1352853392.2289999,9362500,-15788,3290,1617.828,1176.612,-2.9739999999999998,-3.0269999999999997
48055,1352853392.2680001,9362500,-15859,3284,1581.68,1236.478,-2.9819999999999998,-3.009
48070,1352853392.308,9362500,-15896,3272,1577.236,1193.653,-2.8939999999999997,-2.989
48085,1352853392.349,9362500,-15939,3268,1579.9470000000001,1165.348,-2.983,-2.9789999999999996
48100,1352853392.391,9362500,-16006,3277,1564.8029999999999,1130.247,-3.0660000000000003,-3.054
48115,1352853392.43,9362500,-16079,3309,1538.9270000000001,1122.28,-3.068,-3.074
48130,1352853392.4689999,9362500,-16146,3277,1515.6470000000002,1188.362,-2.985,-2.967
48145,1352853392.507,9362500,-16185,3254,1544.3339999999998,1228.802,-2.832,-2.8760000000000003
48160,1352853392.545,9362500,-16245,3250,1568.0520000000001,1282.911,-2.824,-2.906
48175,1352853392.59,9362500,-16321,3234,1556.398,1328.3829999999998,-2.773,-2.839
48190,1352853392.629,9362500,-16376,3219,1549.996,1341.49,-2.75,-2.815
48205,1352853392.671,9362500,-16440,3213,1565.364,1412.115,-2.745,-2.838
48220,1352853392.711,9362500,-16497,3216,1573.3239999999998,1379.497,-2.85,-2.904
48234,1352853392.7510002,9362500,-16571,3205,1588.481,1393.638,-2.905,-2.946
48248,1352853392.792,9362500,-16638,3175,1602.1689999999999,1407.1029999999998,-2.951,-2.958
48262,1352853392.832,9362500,-16684,3161,1633.16,1382.6470000000002,-2.967,-2.987
48276,1352853392.8669999,9362500,-16737,3159,1636.9189999999999,1412.505,-3.0589999999999997,-3.0610000000000004
48291,1352853392.9060001,9362500,-16797,3211,1609.2579999999998,1391.1329999999998,3.0589999999999997,3.029
48306,1352853392.943,9362500,-16810,3269,1583.674,1330.271,2.785,2.8710000000000004
48321,1352853392.984,9362500,-16850,3325,1546.98,1347.285,2.682,2.762
48336,1352853393.024,9362500,-16891,3347,1551.608,1303.938,2.685,2.737
48351,1352853393.065,9362500,-16933,3394,1489.06,1322.335,2.6719999999999997,2.7060000000000004
48366,1352853393.1069999,9362500,-16961,3432,1489.874,1313.899,2.6430000000000002,2.74
48381,1352853393.147,9362500,-17004,3455,1491.0970000000002,1346.746,2.6839999999999997,2.736
48396,1352853393.189,9362500,-17081,3427,1638.0610000000001,1420.5,2.7569999999999997,2.8089999999999997
48411,1352853393.23,9362500,-17124,3425,1646.904,1397.89,2.775,2.878
48426,1352853393.269,9362500,-17189,3448,1626.024,1472.4560000000001,2.79,2.911
48441,1352853393.309,9362500,-17246,3454,1620.8270000000002,1458.763,2.845,2.909
48456,1352853393.3539999,9362500,-17304,3461,1640.055,1455.141,2.852,2.9189999999999996
48471,1352853393.394,9362500,-17340,3451,1614.069,1456.378,2.8930000000000002,2.971
48486,1352853393.434,9362500,-17383,3441,1579.8339999999998,1363.894,2.87,2.972
48501,1352853393.474,9362500,-17459,3457,1531.233,1413.906,2.91,2.9610000000000003
48516,1352853393.514,9362500,-17504,3474,1506.104,1401.261,2.873,2.9389999999999996
48531,1352853393.553,9362500,-17551,3469,1504.9579999999999,1335.558,2.895,2.92
48546,1352853393.59,9362500,-17607,3485,1582.17,1265.881,2.9019999999999997,2.9410000000000003
48561,1352853393.631,9362500,-17658,3485,1590.8929999999998,1231.988,2.9019999999999997,2.998
48576,1352853393.669,9362500,-17730,3477,1622.402,1268.708,3.0639999999999996,3.0989999999999998
48591,1352853393.711,9362500,-17778,3470,1628.9,1283.377,-3.136,-3.12
48606,1352853393.75,9362500,-17822,3463,1630.5339999999999,1241.414,-3.136,-3.0839999999999996
48621,1352853393.79,9362500,-17895,3460,1550.359,1268.978,3.091,-3.127
48636,1352853393.831,9362500,-17959,3467,1532.642,1241.191,3.1289999999999996,-3.135
48651,1352853393.869,9362500,-18009,3474,1515.328,1279.295,3.005,3.07
48666,1352853393.909,9362500,-18066,3481,1508.4270000000001,1326.797,2.9619999999999997,3.057
48681,1352853393.946,9362500,-18106,3495,1505.908,1334.53,2.927,3.0010000000000003
48696,1352853393.987,9362500,-18180,3495,1447.756,1412.0279999999998,2.9930000000000003,3.056
48711,1352853394.028,9362500,-18226,3496,1435.275,1391.997,3.0060000000000002,3.085
48726,1352853394.069,9362500,-18232,3487,1431.241,1228.078,-3.112,3.137
48741,1352853394.111,9362500,-18316,3473,1592.114,1282.845,-3.054,-3.076
48756,1352853394.153,9362500,-18361,3445,1626.297,1281.235,-2.9819999999999998,-3.0439999999999996
48771,1352853394.193,9362500,-18428,3446,1584.629,1320.27,-3.012,-3.037
48786,1352853394.233,9362500,-18482,3415,1572.1029999999998,1337.6879999999999,-2.958,-3.0010000000000003
48801,1352853394.272,9362500,-18551,3406,1536.4820000000002,1255.384,-2.9989999999999997,-3.043
48816,1352853394.312,9362500,-18612,3411,1519.046,1280.572,-3.014,-3.0439999999999996
48831,1352853394.351,9362500,-18668,3439,1508.751,1229.682,3.134,3.062
48846,1352853394.391,9362500,-18724,3460,1654.7720000000002,1278.674,3.056,3.014
48861,1352853394.429,9362500,-18730,3402,1708.364,1210.136,3.113,3.057
48876,1352853394.4689999,9362500,-18742,3395,1722.745,1164.135,2.998,2.9939999999999998
48891,1352853394.5089998,9362500,-18792,3401,1683.5539999999999,1180.874,2.93,2.943
48906,1352853394.553,9362500,-18850,3400,1674.1070000000002,1221.239,2.945,2.957
