,time,id,x,y,z,velocity,angle of motion,facing angle
47153,1352853389.82,9362900,-32070,-3989,1535.506,351.957,0.996,0.0
47166,1352853389.862,9362900,-32070,-3989,1535.506,172.247,1.005,1.212
47179,1352853389.901,9362900,-32066,-3984,1535.506,154.256,1.0290000000000001,1.565
47192,1352853389.941,9362900,-32066,-3984,1535.506,67.945,0.71,1.075
47205,1352853389.98,9362900,-32048,-3979,1535.364,162.96200000000002,1.202,1.429
47218,1352853390.02,9362900,-32042,-3959,1535.211,229.72,1.334,1.9369999999999998
47231,1352853390.057,9362900,-32043,-3956,1535.2120000000002,222.838,1.035,1.733
47244,1352853390.099,9362900,-32042,-3951,1535.2120000000002,252.99900000000002,1.288,1.89
47257,1352853390.139,9362900,-32042,-3938,1535.2120000000002,299.66200000000003,1.2930000000000001,2.057
47270,1352853390.178,9362900,-32085,-3865,1537.069,407.73,1.8969999999999998,2.194
47283,1352853390.218,9362900,-32097,-3802,1541.0,504.995,1.6769999999999998,1.806
47296,1352853390.256,9362900,-32081,-3771,1544.855,544.865,1.598,1.758
47309,1352853390.297,9362900,-32081,-3744,1544.766,503.25800000000004,1.555,1.7719999999999998
47322,1352853390.337,9362900,-32080,-3729,1544.766,474.276,1.649,1.775
47335,1352853390.375,9362900,-32020,-3627,1546.6879999999999,732.3760000000001,1.416,1.439
47348,1352853390.41,9362900,-31979,-3572,1547.485,870.4839999999999,1.251,1.1540000000000001
47362,1352853390.45,9362900,-31970,-3498,1548.736,946.872,1.109,1.025
47376,1352853390.4889998,9362900,-31965,-3444,1549.2720000000002,994.812,1.1179999999999999,1.01
47390,1352853390.528,9362900,-31968,-3365,1568.016,1110.856,1.1420000000000001,0.965
47405,1352853390.566,9362900,-32104,-3268,1582.5179999999998,755.9069999999999,1.936,0.937
47420,1352853390.605,9362900,-32133,-3228,1583.1689999999999,758.438,2.001,0.965
47435,1352853390.6430001,9362900,-32147,-3200,1583.17,774.14,2.003,1.094
47450,1352853390.684,9362900,-32157,-3166,1583.17,778.0060000000001,2.033,1.087
47465,1352853390.721,9362900,-32167,-3138,1583.17,741.721,2.104,1.227
47480,1352853390.76,9362900,-32181,-3118,1583.17,735.2439999999999,2.0669999999999997,1.305
47496,1352853390.797,9362900,-32193,-3092,1583.17,678.346,2.053,1.416
47512,1352853390.837,9362900,-32203,-3069,1583.17,632.442,2.022,1.3619999999999999
47528,1352853390.8769999,9362900,-32213,-3052,1583.17,595.476,2.023,1.35
47544,1352853390.915,9362900,-32230,-2958,1583.17,838.612,1.804,1.517
47560,1352853390.953,9362900,-32232,-2921,1583.17,825.9839999999999,1.749,1.525
47576,1352853390.99,9362900,-32237,-2892,1583.17,830.51,1.742,1.524
47591,1352853391.036,9362900,-32065,-2831,1584.703,980.0110000000001,0.9209999999999999,1.011
47606,1352853391.075,9362900,-31997,-2823,1589.656,1015.0,0.747,0.866
47621,1352853391.1139998,9362900,-31952,-2815,1594.859,1057.5610000000001,0.6859999999999999,0.8009999999999999
47636,1352853391.152,9362900,-31926,-2797,1595.1070000000002,1039.79,0.716,0.755
47651,1352853391.192,9362900,-31894,-2781,1650.646,1042.774,0.7120000000000001,0.701
47666,1352853391.23,9362900,-31860,-2755,1650.491,1044.672,0.736,0.7140000000000001
47681,1352853391.27,9362900,-31823,-2729,1650.491,993.7610000000001,0.68,0.6779999999999999
47696,1352853391.309,9362900,-31791,-2713,1650.491,956.72,0.642,0.6579999999999999
47711,1352853391.352,9362900,-31751,-2691,1650.491,884.925,0.66,0.665
47726,1352853391.39,9362900,-31721,-2672,1650.491,860.14,0.625,0.638
47741,1352853391.428,9362900,-31816,-2616,1714.204,767.325,0.94,0.848
47756,1352853391.466,9362900,-31818,-2603,1777.059,755.5980000000001,0.978,0.8690000000000001
47771,1352853391.507,9362900,-31787,-2581,1777.7939999999999,751.578,0.9329999999999999,0.8440000000000001
47786,1352853391.547,9362900,-31734,-2603,1782.61,757.293,0.812,0.745
47801,1352853391.586,9362900,-31703,-2593,1774.675,762.1360000000001,0.726,0.6829999999999999
47816,1352853391.628,9362900,-31652,-2606,1767.2879999999998,779.857,0.598,0.66
47831,1352853391.671,9362900,-31635,-2616,1760.5770000000002,766.8689999999999,0.61,0.64
47846,1352853391.71,9362900,-31633,-2605,1756.2579999999998,777.541,0.682,0.6659999999999999
47861,1352853391.7510002,9362900,-31625,-2600,1750.055,747.284,0.6609999999999999,0.6729999999999999
47876,1352853391.793,9362900,-31597,-2589,1743.979,774.696,0.6409999999999999,0.632
47891,1352853391.83,9362900,-31565,-2567,1736.619,777.5930000000001,0.655,0.6629999999999999
47906,1352853391.8730001,9362900,-31519,-2547,1728.142,868.7760000000001,0.64,0.7040000000000001
47921,1352853391.912,9362900,-31503,-2517,1731.265,891.7339999999999,0.7509999999999999,0.728
47936,1352853391.95,9362900,-31479,-2494,1732.0510000000002,849.291,0.775,0.716
47951,1352853391.9910002,9362900,-31453,-2465,1732.0510000000002,840.576,0.8240000000000001,0.723
47966,1352853392.0310001,9362900,-31460,-2464,1729.3229999999999,674.1419999999999,0.802,0.7390000000000001
47981,1352853392.074,9362900,-31467,-2459,1723.91,669.475,0.8079999999999999,0.764
47996,1352853392.112,9362900,-31462,-2451,1723.7939999999999,618.931,0.8290000000000001,0.703
48011,1352853392.15,9362900,-31453,-2439,1723.7939999999999,606.2130000000001,0.7490000000000001,0.718
48026,1352853392.19,9362900,-31441,-2425,1723.7939999999999,585.1419999999999,0.657,0.708
48041,1352853392.2289999,9362900,-31475,-2418,1733.276,603.2869999999999,0.807,0.7879999999999999
48056,1352853392.2680001,9362900,-31487,-2410,1743.6229999999998,677.564,0.882,0.847
48071,1352853392.308,9362900,-31492,-2365,1765.619,728.705,0.9740000000000001,0.925
48086,1352853392.349,9362900,-31480,-2315,1767.8729999999998,813.987,0.972,0.887
48101,1352853392.391,9362900,-31468,-2282,1769.391,794.842,0.985,0.9109999999999999
48116,1352853392.43,9362900,-31466,-2299,1768.2279999999998,662.4010000000001,0.903,0.841
48131,1352853392.4689999,9362900,-31465,-2322,1766.629,646.567,0.88,0.8740000000000001
48146,1352853392.507,9362900,-31451,-2303,1766.655,612.37,0.828,0.8690000000000001
48161,1352853392.545,9362900,-31439,-2285,1766.655,612.169,0.882,0.871
48176,1352853392.59,9362900,-31461,-2342,1763.871,587.286,0.922,0.927
48191,1352853392.629,9362900,-31454,-2327,1763.817,545.23,0.8540000000000001,0.988
48206,1352853392.671,9362900,-31434,-2311,1763.817,511.983,0.747,0.945
48221,1352853392.711,9362900,-31460,-2315,1760.6729999999998,553.7180000000001,0.9129999999999999,0.991
48235,1352853392.7510002,9362900,-31512,-2319,1760.1570000000002,582.28,1.178,1.056
48249,1352853392.792,9362900,-31545,-2293,1759.6960000000001,604.727,1.2919999999999998,1.128
48263,1352853392.832,9362900,-31552,-2267,1758.49,642.884,1.288,1.18
48277,1352853392.8669999,9362900,-31556,-2255,1757.265,671.2280000000001,1.295,1.195
48292,1352853392.9060001,9362900,-31560,-2233,1756.945,774.035,1.335,1.2770000000000001
48307,1352853392.943,9362900,-31572,-2212,1756.765,774.334,1.4,1.347
48322,1352853392.984,9362900,-31565,-2234,1753.033,685.1410000000001,1.3769999999999998,1.386
48337,1352853393.024,9362900,-31566,-2205,1753.08,691.793,1.393,1.411
48352,1352853393.065,9362900,-31577,-2191,1751.4279999999999,644.149,1.403,1.4040000000000001
48367,1352853393.1069999,9362900,-31585,-2156,1750.271,702.7760000000001,1.43,1.401
48382,1352853393.147,9362900,-31576,-2131,1750.3470000000002,591.626,1.359,1.4680000000000002
48397,1352853393.189,9362900,-31571,-2109,1750.3470000000002,570.873,1.2930000000000001,1.401
48412,1352853393.23,9362900,-31566,-2083,1750.3470000000002,589.352,1.222,1.4169999999999998
48427,1352853393.269,9362900,-31554,-2062,1750.3470000000002,513.186,1.185,1.392
48442,1352853393.309,9362900,-31600,-2101,1758.49,500.774,1.31,1.405
48457,1352853393.3539999,9362900,-31624,-2081,1758.694,571.242,1.5,1.538
48472,1352853393.394,9362900,-31634,-2088,1758.905,507.431,1.631,1.6440000000000001
48487,1352853393.434,9362900,-31618,-2108,1758.7839999999999,549.9540000000001,1.4509999999999998,1.483
48502,1352853393.474,9362900,-31620,-2094,1758.745,457.215,1.4769999999999999,1.5219999999999998
48517,1352853393.514,9362900,-31620,-2085,1758.745,453.42400000000004,1.469,1.5390000000000001
48532,1352853393.553,9362900,-31625,-2106,1764.83,462.542,1.564,1.54
48547,1352853393.59,9362900,-31627,-2108,1769.774,446.775,1.5490000000000002,1.594
48562,1352853393.631,9362900,-31627,-2127,1775.14,429.814,1.693,1.6980000000000002
48577,1352853393.669,9362900,-31644,-2161,1785.227,409.98900000000003,1.9669999999999999,1.9040000000000001
48592,1352853393.711,9362900,-31666,-2162,1784.8229999999999,480.659,2.094,1.9969999999999999
48607,1352853393.75,9362900,-31664,-2168,1784.595,496.625,2.012,1.972
48622,1352853393.79,9362900,-31675,-2155,1784.134,565.486,1.963,1.9409999999999998
48637,1352853393.831,9362900,-31696,-2119,1784.01,590.453,1.95,1.994
48652,1352853393.869,9362900,-31698,-2126,1789.014,638.186,2.028,2.043
48667,1352853393.909,9362900,-31701,-2143,1792.61,534.105,2.113,2.046
48682,1352853393.946,9362900,-31686,-2129,1789.0929999999998,585.9119999999999,2.153,2.093
48697,1352853393.987,9362900,-31672,-2139,1783.85,565.761,2.146,2.155
48712,1352853394.028,9362900,-31676,-2154,1781.588,570.548,2.255,2.186
48727,1352853394.069,9362900,-31672,-2154,1779.513,534.615,2.225,2.221
48742,1352853394.111,9362900,-31688,-2133,1779.575,513.991,2.301,2.2840000000000003
48757,1352853394.153,9362900,-31670,-2130,1776.981,657.059,2.327,2.322
48772,1352853394.193,9362900,-31672,-2127,1775.259,680.258,2.45,2.4330000000000003
48787,1352853394.233,9362900,-31713,-2130,1774.306,673.9939999999999,2.5380000000000003,2.523
48802,1352853394.272,9362900,-31731,-2116,1774.146,668.807,2.533,2.5789999999999997
48817,1352853394.312,9362900,-31750,-2103,1774.146,645.225,2.551,2.64
48832,1352853394.351,9362900,-31722,-2085,1772.781,649.05,2.517,2.5069999999999997
48847,1352853394.391,9362900,-31715,-2092,1770.899,623.077,2.45,2.445
48862,1352853394.429,9362900,-31714,-2108,1769.182,617.356,2.419,2.4290000000000003
48877,1352853394.4689999,9362900,-31706,-2107,1767.1470000000002,569.665,2.3209999999999997,2.367
48892,1352853394.5089998,9362900,-31714,-2095,1764.3410000000001,579.519,2.311,2.366
48907,1352853394.553,9362900,-31698,-2082,1761.4129999999998,577.104,2.206,2.307
48922,1352853394.595,9362900,-31710,-2063,1761.349,514.2130000000001,2.1069999999999998,2.285
48937,1352853394.6360002,9362900,-31722,-2054,1761.349,475.79400000000004,2.14,2.261
48952,1352853394.676,9362900,-31637,-2062,1756.431,489.715,1.848,2.06
48967,1352853394.714,9362900,-31633,-2060,1753.598,551.928,1.942,2.075
48982,1352853394.7519999,9362900,-31641,-2045,1752.32,544.837,1.9809999999999999,2.104
48997,1352853394.7910001,9362900,-31653,-2043,1751.1670000000001,501.445,2.075,2.105
49012,1352853394.831,9362900,-31646,-2060,1748.7820000000002,448.889,1.973,2.072
49027,1352853394.8760002,9362900,-31628,-2065,1745.725,453.49199999999996,1.838,1.902
49042,1352853394.918,9362900,-31608,-2072,1742.489,393.486,1.62,1.639
49057,1352853394.956,9362900,-31588,-2149,1734.14,211.97099999999998,0.6509999999999999,0.621
49072,1352853394.995,9362900,-31559,-2203,1725.089,343.28,-0.315,-0.337
49087,1352853395.036,9362900,-31546,-2203,1725.023,312.02099999999996,-0.267,-0.28600000000000003
49102,1352853395.076,9362900,-31505,-2249,1723.807,489.19199999999995,-0.445,-0.526
49117,1352853395.1169999,9362900,-31491,-2250,1723.443,549.456,-0.488,-0.595
49132,1352853395.16,9362900,-31466,-2223,1722.635,505.44199999999995,-0.486,-0.551
49147,1352853395.203,9362900,-31430,-2238,1720.819,506.63199999999995,-0.6459999999999999,-0.636
49162,1352853395.243,9362900,-31414,-2241,1720.899,478.369,-0.51,-0.715
49177,1352853395.282,9362900,-31396,-2249,1720.899,466.843,-0.494,-0.693
49192,1352853395.321,9362900,-31378,-2258,1720.899,453.12699999999995,-0.29100000000000004,-0.609
49207,1352853395.358,9362900,-31365,-2264,1720.899,413.029,-0.359,-0.56
49222,1352853395.3960001,9362900,-31356,-2273,1720.899,384.95,-0.29600000000000004,-0.524
49237,1352853395.434,9362900,-31346,-2278,1720.899,347.735,-0.436,-0.542
49252,1352853395.474,9362900,-31294,-2272,1719.509,475.12800000000004,-0.397,-0.39
49267,1352853395.515,9362900,-31263,-2254,1718.6779999999999,610.905,-0.342,-0.28300000000000003
49282,1352853395.557,9362900,-31254,-2266,1718.549,577.102,-0.373,-0.292
49297,1352853395.595,9362900,-31337,-2210,1712.989,596.203,-0.366,-0.268
49312,1352853395.6330001,9362900,-31316,-2194,1707.191,636.62,-0.23199999999999998,-0.205
49327,1352853395.675,9362900,-31260,-2190,1706.8629999999998,730.877,-0.149,-0.113
49342,1352853395.713,9362900,-31232,-2185,1706.408,771.9060000000001,-0.10400000000000001,-0.086
49357,1352853395.754,9362900,-31196,-2192,1706.443,762.7230000000001,-0.153,-0.08
49372,1352853395.793,9362900,-31142,-2178,1703.395,837.2869999999999,0.022000000000000002,-0.002
49387,1352853395.835,9362900,-31094,-2159,1700.233,918.317,0.136,0.066
49402,1352853395.878,9362900,-31055,-2151,1700.2060000000001,869.0880000000001,0.115,0.064
49417,1352853395.918,9362900,-31025,-2144,1700.2060000000001,783.1030000000001,0.145,0.03
49432,1352853395.9589999,9362900,-31032,-2112,1699.612,730.925,0.17300000000000001,0.066
49447,1352853395.9980001,9362900,-31020,-2049,1694.737,785.941,0.439,0.271
49462,1352853396.04,9362900,-31002,-2000,1690.2420000000002,874.018,0.45399999999999996,0.34700000000000003
49477,1352853396.078,9362900,-30990,-1981,1685.9170000000001,956.712,0.501,0.377
49492,1352853396.118,9362900,-31004,-1957,1682.1970000000001,855.8480000000001,0.598,0.525
49507,1352853396.1560001,9362900,-31040,-1943,1680.954,765.21,0.62,0.565
49522,1352853396.196,9362900,-31062,-1935,1678.115,666.936,0.632,0.626
49537,1352853396.235,9362900,-31088,-1923,1674.8310000000001,567.006,0.6920000000000001,0.665
49552,1352853396.275,9362900,-31087,-1912,1674.493,596.746,0.7290000000000001,0.762
49567,1352853396.315,9362900,-31095,-1888,1673.8470000000002,589.632,0.7040000000000001,0.762
49582,1352853396.355,9362900,-31106,-1885,1680.293,585.413,0.8220000000000001,0.812
49597,1352853396.3960001,9362900,-31101,-1875,1687.432,585.8240000000001,0.9159999999999999,0.825
49612,1352853396.438,9362900,-31086,-1840,1690.734,649.873,0.892,0.877
49627,1352853396.4789999,9362900,-31090,-1807,1690.856,706.684,1.092,0.992
49642,1352853396.517,9362900,-31096,-1777,1690.549,768.7460000000001,1.044,0.99
49657,1352853396.555,9362900,-31093,-1747,1687.9289999999999,781.51,1.031,1.024
49672,1352853396.5939999,9362900,-31089,-1720,1685.432,800.1260000000001,1.081,1.077
49687,1352853396.6339998,9362900,-31081,-1696,1680.1589999999999,838.2230000000001,1.13,1.08
49702,1352853396.672,9362900,-31075,-1663,1695.0910000000001,902.6080000000001,1.148,1.138
49717,1352853396.713,9362900,-31079,-1623,1707.65,901.1310000000001,1.301,1.215
49732,1352853396.754,9362900,-31063,-1607,1700.1029999999998,924.047,1.2919999999999998,1.194
49747,1352853396.794,9362900,-31047,-1597,1692.4170000000001,954.316,1.1420000000000001,1.16
49762,1352853396.832,9362900,-31033,-1592,1683.398,964.064,1.101,1.155
49777,1352853396.872,9362900,-31021,-1577,1674.737,958.5989999999999,1.074,1.158
49792,1352853396.909,9362900,-31024,-1555,1670.501,936.3919999999999,1.107,1.162
49807,1352853396.95,9362900,-31012,-1533,1669.839,899.436,1.078,1.178
49822,1352853396.988,9362900,-30995,-1499,1669.839,878.595,1.083,1.147
49837,1352853397.026,9362900,-30996,-1468,1673.351,927.255,1.173,1.162
49851,1352853397.067,9362900,-30956,-1493,1667.479,848.085,0.84,0.925
49865,1352853397.108,9362900,-30922,-1503,1662.2220000000002,770.6569999999999,0.758,0.8079999999999999
49879,1352853397.148,9362900,-30900,-1477,1662.2,783.945,0.8370000000000001,0.7959999999999999
49893,1352853397.186,9362900,-30903,-1439,1684.094,847.992,0.98,0.9329999999999999
49907,1352853397.23,9362900,-30907,-1398,1698.52,870.557,1.052,1.064
49921,1352853397.27,9362900,-30885,-1396,1695.759,785.868,1.006,1.018
49934,1352853397.309,9362900,-30846,-1389,1691.674,750.797,0.945,0.988
49947,1352853397.347,9362900,-30829,-1365,1691.275,737.5139999999999,0.917,0.953
49960,1352853397.387,9362900,-30813,-1342,1691.275,737.1560000000001,1.003,0.9840000000000001
49973,1352853397.428,9362900,-30769,-1337,1682.64,802.322,0.889,0.9109999999999999
49986,1352853397.466,9362900,-30759,-1319,1680.0020000000002,772.1419999999999,0.95,0.9329999999999999
49999,1352853397.505,9362900,-30751,-1291,1678.0079999999998,742.143,0.968,0.917
50012,1352853397.544,9362900,-30615,-1441,1673.8329999999999,936.6289999999999,0.408,0.612
50025,1352853397.586,9362900,-30584,-1488,1665.997,883.5419999999999,0.266,0.401
50038,1352853397.6230001,9362900,-30561,-1439,1661.579,844.316,0.452,0.483
50051,1352853397.663,9362900,-30547,-1412,1656.059,787.2610000000001,0.525,0.527
50064,1352853397.703,9362900,-30651,-1292,1652.851,528.535,1.294,0.986
50077,1352853397.744,9362900,-30645,-1270,1652.795,474.681,1.177,1.093
50090,1352853397.785,9362900,-30614,-1181,1648.2020000000002,687.725,1.182,1.08
50103,1352853397.826,9362900,-30594,-1148,1643.1770000000001,708.602,1.141,1.071
50116,1352853397.863,9362900,-30567,-1076,1643.9170000000001,828.4860000000001,1.203,1.11
50129,1352853397.901,9362900,-30544,-1018,1644.38,889.0419999999999,1.17,1.1420000000000001
50142,1352853397.937,9362900,-30560,-1062,1638.68,733.3580000000001,1.131,1.155
50155,1352853397.98,9362900,-30535,-1006,1633.279,738.038,1.177,1.136
50168,1352853398.0210001,9362900,-30522,-963,1626.524,721.5210000000001,1.208,1.149
50181,1352853398.062,9362900,-30511,-940,1626.46,705.7310000000001,1.249,1.137
50194,1352853398.101,9362900,-30503,-916,1626.46,714.046,1.21,1.097
50207,1352853398.141,9362900,-30498,-896,1626.46,685.1210000000001,1.237,1.104
50220,1352853398.18,9362900,-30389,-893,1615.819,827.9989999999999,0.9229999999999999,1.1340000000000001
50233,1352853398.22,9362900,-30329,-855,1603.904,984.1439999999999,0.948,1.12
50246,1352853398.2580001,9362900,-30286,-801,1594.892,1071.21,1.064,1.101
50259,1352853398.299,9362900,-30259,-753,1585.6670000000001,1147.318,1.092,1.084
50272,1352853398.339,9362900,-30241,-723,1578.635,1130.008,1.14,1.0979999999999999
50285,1352853398.378,9362900,-30214,-678,1574.356,1102.425,1.121,1.081
50298,1352853398.419,9362900,-30182,-640,1570.31,1127.066,1.093,1.1179999999999999
50309,1352853398.458,9362900,-30185,-620,1584.9489999999998,1050.1860000000001,1.218,1.176
50320,1352853398.496,9362900,-30202,-611,1595.9979999999998,1021.3839999999999,1.311,1.264
50331,1352853398.534,9362900,-30199,-600,1601.317,1031.521,1.3659999999999999,1.339
50342,1352853398.573,9362900,-30199,-554,1595.205,1025.645,1.3969999999999998,1.361
50353,1352853398.612,9362900,-30190,-507,1595.3210000000001,997.248,1.3359999999999999,1.3940000000000001
50364,1352853398.651,9362900,-30187,-469,1595.3210000000001,973.913,1.3769999999999998,1.4169999999999998
50375,1352853398.691,9362900,-30175,-426,1595.3210000000001,933.444,1.341,1.429
50386,1352853398.731,9362900,-30176,-397,1595.3210000000001,906.694,1.3430000000000002,1.4380000000000002
50397,1352853398.769,9362900,-30109,-413,1586.879,1044.171,1.14,1.3119999999999998
50408,1352853398.806,9362900,-30103,-407,1575.809,1081.27,1.102,1.2670000000000001
50419,1352853398.845,9362900,-30079,-372,1575.9029999999998,1035.875,1.0979999999999999,1.295
50430,1352853398.8839998,9362900,-30062,-337,1575.9029999999998,1004.798,1.099,1.298
50441,1352853398.919,9362900,-30051,-313,1575.9029999999998,978.956,1.112,1.325
50452,1352853398.957,9362900,-30027,-259,1565.467,1219.951,1.128,1.2690000000000001
50463,1352853398.997,9362900,-29958,-200,1562.531,1362.162,1.043,1.273
50474,1352853399.036,9362900,-29892,-129,1558.104,1462.116,1.04,1.222
50485,1352853399.074,9362900,-29835,-79,1552.807,1484.361,0.97,1.197
50496,1352853399.11,9362900,-29798,-43,1551.379,1480.152,0.943,1.165
50507,1352853399.148,9362900,-29780,-15,1549.602,1423.6789999999999,1.018,1.159
50518,1352853399.188,9362900,-29734,51,1547.332,1483.1770000000001,1.033,1.159
50529,1352853399.226,9362900,-29695,87,1544.5339999999999,1455.161,1.011,1.145
50540,1352853399.264,9362900,-29641,97,1541.3429999999998,1467.16,0.9390000000000001,1.064
