,time,id,x,y,z,velocity,angle of motion,facing angle
52948,1352853407.619,9364701,39184,-17348,1566.422,931.262,-2.7030000000000003,0.0
52960,1352853407.6560001,9364701,39184,-17347,1558.3139999999999,925.062,-2.7,1.797
52972,1352853407.693,9364701,39156,-17363,1554.057,910.48,-2.667,-2.451
52984,1352853407.728,9364701,39128,-17373,1546.046,865.755,-2.677,-2.637
52996,1352853407.7680001,9364701,39104,-17393,1538.615,900.65,-2.572,-2.6069999999999998
53008,1352853407.81,9364701,39079,-17410,1531.4029999999998,906.6510000000001,-2.543,-2.638
53020,1352853407.848,9364701,39036,-17418,1524.414,950.312,-2.5839999999999996,-2.6839999999999997
53032,1352853407.887,9364701,39008,-17442,1517.755,951.34,-2.5540000000000003,-2.645
53044,1352853407.924,9364701,38979,-17459,1512.942,963.4010000000001,-2.556,-2.639
53056,1352853407.96,9364701,38961,-17470,1509.733,919.941,-2.508,-2.625
53068,1352853408.0,9364701,38935,-17483,1505.719,914.023,-2.5610000000000004,-2.688
53080,1352853408.04,9364701,38909,-17487,1503.141,906.309,-2.585,-2.737
53092,1352853408.078,9364701,38878,-17489,1500.349,908.421,-2.674,-2.7769999999999997
53104,1352853408.118,9364701,38857,-17493,1498.37,888.398,-2.685,-2.772
53116,1352853408.158,9364701,38836,-17507,1496.152,819.257,-2.6239999999999997,-2.7939999999999996
53128,1352853408.196,9364701,38809,-17514,1495.721,830.355,-2.6889999999999996,-2.804
53140,1352853408.234,9364701,38769,-17516,1494.461,886.6569999999999,-2.805,-2.853
53152,1352853408.27,9364701,38715,-17521,1492.473,918.362,-2.804,-2.8280000000000003
53164,1352853408.308,9364701,38672,-17545,1489.019,997.357,-2.755,-2.819
53176,1352853408.346,9364701,38638,-17556,1485.711,1014.422,-2.722,-2.835
53188,1352853408.387,9364701,38595,-17567,1482.944,1007.37,-2.8289999999999997,-2.8689999999999998
53200,1352853408.425,9364701,38551,-17584,1481.442,998.3910000000001,-2.8160000000000003,-2.866
53212,1352853408.461,9364701,38507,-17591,1480.504,1013.502,-2.782,-2.89
53224,1352853408.4989998,9364701,38480,-17608,1483.8829999999998,1010.0310000000001,-2.812,-2.909
53236,1352853408.538,9364701,38456,-17610,1497.4089999999999,997.472,-2.7760000000000002,-2.885
53248,1352853408.565,9364701,38431,-17613,1495.241,1027.84,-2.815,-2.898
53260,1352853408.596,9364701,38393,-17613,1494.005,1083.667,-2.884,-2.886
53272,1352853408.635,9364701,38354,-17622,1492.203,1154.864,-2.88,-2.841
53284,1352853408.675,9364701,38316,-17616,1490.2820000000002,1151.241,-2.8110000000000004,-2.872
53296,1352853408.714,9364701,38285,-17627,1488.701,1154.184,-2.801,-2.9
53308,1352853408.7519999,9364701,38241,-17642,1486.171,1193.996,-2.862,-2.897
53320,1352853408.7910001,9364701,38212,-17668,1484.0810000000001,1216.846,-2.835,-2.867
53332,1352853408.829,9364701,38187,-17681,1482.308,1147.236,-2.819,-2.8760000000000003
53344,1352853408.869,9364701,38159,-17696,1480.805,1091.3110000000001,-2.89,-2.926
53356,1352853408.9060001,9364701,38128,-17678,1479.1770000000001,1074.175,-2.995,-3.071
53368,1352853408.943,9364701,38097,-17662,1476.328,1042.292,-3.113,-3.093
53380,1352853408.981,9364701,38062,-17652,1473.961,1084.1660000000002,3.1189999999999998,3.116
53392,1352853409.019,9364701,38021,-17673,1472.555,1078.4460000000001,-3.0460000000000003,-3.075
53404,1352853409.057,9364701,37969,-17689,1472.234,1054.6760000000002,-3.016,-3.0989999999999998
53416,1352853409.097,9364701,37932,-17700,1472.0620000000001,1061.677,-2.9539999999999997,-3.0589999999999997
53428,1352853409.135,9364701,37908,-17739,1472.1729999999998,1093.369,-2.885,-2.95
53440,1352853409.172,9364701,37905,-17779,1472.4660000000001,1043.415,-2.8310000000000004,-2.909
53452,1352853409.2089999,9364701,37841,-17785,1472.467,1064.9189999999999,-2.855,-2.945
53464,1352853409.2489998,9364701,37765,-17807,1472.119,1198.235,-2.818,-2.8710000000000004
53476,1352853409.292,9364701,37722,-17822,1472.1229999999998,1181.254,-2.8169999999999997,-2.865
53488,1352853409.33,9364701,37717,-17809,1472.5610000000001,1112.947,-2.931,-2.946
53500,1352853409.368,9364701,37684,-17804,1472.464,1031.517,-2.9960000000000004,-3.012
53512,1352853409.4060001,9364701,37683,-17782,1472.775,864.768,-3.141,-3.14
53524,1352853409.445,9364701,37734,-17668,1468.382,718.3789999999999,2.772,2.815
53536,1352853409.483,9364701,37687,-17651,1468.5410000000002,761.605,2.782,2.783
53548,1352853409.5210001,9364701,37637,-17636,1468.434,856.785,2.702,2.7310000000000003
53561,1352853409.562,9364701,37623,-17608,1468.693,809.592,2.772,2.779
53574,1352853409.601,9364701,37545,-17651,1468.388,862.8439999999999,2.846,2.903
53587,1352853409.6430001,9364701,37482,-17664,1468.165,914.033,2.87,2.9010000000000002
53600,1352853409.68,9364701,37435,-17654,1468.1970000000001,900.584,2.86,2.897
53613,1352853409.718,9364701,37392,-17674,1468.0279999999998,833.363,2.991,3.036
53626,1352853409.756,9364701,37347,-17660,1467.951,830.57,2.977,3.045
53639,1352853409.796,9364701,37305,-17667,1468.0320000000002,829.6519999999999,2.9989999999999997,3.049
53652,1352853409.836,9364701,37234,-17686,1465.54,804.789,2.8760000000000003,2.997
53666,1352853409.8739998,9364701,37210,-17669,1465.592,762.055,2.858,2.951
53680,1352853409.913,9364701,37187,-17659,1465.592,753.818,2.783,2.9160000000000004
53694,1352853409.952,9364701,37228,-17758,1456.442,739.83,-3.1069999999999998,-3.043
53708,1352853409.99,9364701,37211,-17770,1445.257,668.748,-2.971,-2.986
53722,1352853410.0310001,9364701,37176,-17750,1440.058,751.9760000000001,3.073,3.11
53736,1352853410.069,9364701,37143,-17715,1432.8770000000002,846.683,2.909,2.9939999999999998
53751,1352853410.108,9364701,37109,-17704,1432.761,868.057,2.8930000000000002,2.963
53766,1352853410.148,9364701,37084,-17694,1432.761,839.0360000000001,2.877,2.9939999999999998
53781,1352853410.187,9364701,37054,-17684,1432.761,780.699,2.812,3.043
53796,1352853410.225,9364701,37021,-17675,1432.761,779.52,2.918,3.0839999999999996
53811,1352853410.264,9364701,36991,-17666,1432.761,786.1030000000001,2.841,3.003
53826,1352853410.301,9364701,36880,-17702,1430.7,994.758,3.051,3.053
53841,1352853410.341,9364701,36761,-17724,1437.8729999999998,1168.3,-2.951,-2.958
53856,1352853410.3760002,9364701,36693,-17738,1446.8139999999999,1196.858,-2.835,-2.839
53871,1352853410.413,9364701,36682,-17769,1439.781,1259.07,-2.569,-2.592
53886,1352853410.449,9364701,36660,-17792,1431.4560000000001,1364.9560000000001,-2.427,-2.4290000000000003
53900,1352853410.484,9364701,36625,-17822,1431.3229999999999,1337.4260000000002,-2.476,-2.484
53914,1352853410.525,9364701,36586,-17858,1430.275,1376.845,-2.476,-2.427
53928,1352853410.562,9364701,36539,-17883,1429.527,1362.731,-2.461,-2.4530000000000003
53942,1352853410.602,9364701,36492,-17904,1484.388,1377.5839999999998,-2.444,-2.463
53956,1352853410.641,9364701,36463,-17943,1527.342,1460.491,-2.4659999999999997,-2.447
53970,1352853410.679,9364701,36451,-17962,1540.15,1395.239,-2.426,-2.4530000000000003
53984,1352853410.718,9364701,36441,-17985,1549.596,1404.239,-2.363,-2.4530000000000003
53998,1352853410.756,9364701,36366,-17979,1539.454,1396.769,-2.47,-2.58
54012,1352853410.799,9364701,36316,-17990,1537.523,1422.2920000000001,-2.553,-2.571
54025,1352853410.838,9364701,36271,-17992,1535.131,1344.8339999999998,-2.6,-2.661
54038,1352853410.875,9364701,36183,-18004,1537.9589999999998,1408.156,-2.701,-2.736
54051,1352853410.914,9364701,36125,-18016,1540.744,1435.267,-2.762,-2.784
54064,1352853410.953,9364701,36092,-18042,1543.15,1373.203,-2.755,-2.762
54077,1352853410.9910002,9364701,36049,-18094,1541.453,1364.39,-2.673,-2.662
54090,1352853411.03,9364701,36028,-18116,1550.6879999999999,1325.18,-2.62,-2.6519999999999997
54103,1352853411.066,9364701,35994,-18127,1555.707,1325.9720000000002,-2.6630000000000003,-2.665
54116,1352853411.1039999,9364701,35957,-18142,1558.0179999999998,1287.677,-2.647,-2.641
54129,1352853411.142,9364701,35940,-18147,1549.257,1158.9189999999999,-2.605,-2.6689999999999996
54142,1352853411.18,9364701,35932,-18153,1540.1370000000002,1027.973,-2.613,-2.66
54155,1352853411.2189999,9364701,35913,-18162,1535.965,969.822,-2.6,-2.6460000000000004
54168,1352853411.2580001,9364701,35881,-18175,1533.524,872.8489999999999,-2.5540000000000003,-2.637
54181,1352853411.297,9364701,35853,-18191,1554.592,864.86,-2.582,-2.654
54194,1352853411.335,9364701,35837,-18195,1549.6960000000001,835.568,-2.6889999999999996,-2.741
54207,1352853411.3730001,9364701,35825,-18220,1543.859,886.8489999999999,-2.6289999999999996,-2.7539999999999996
54220,1352853411.41,9364701,35813,-18237,1539.395,846.431,-2.677,-2.7489999999999997
54233,1352853411.448,9364701,35794,-18250,1534.9370000000001,931.887,-2.685,-2.7260000000000004
54246,1352853411.488,9364701,35744,-18239,1532.858,949.8480000000001,-2.892,-2.918
54259,1352853411.5310001,9364701,35690,-18230,1537.229,960.388,-3.055,-3.105
54272,1352853411.567,9364701,35655,-18228,1539.355,984.6039999999999,-3.1069999999999998,-3.068
54285,1352853411.6039999,9364701,35605,-18245,1533.19,1056.187,-3.063,-2.983
54298,1352853411.6430001,9364701,35565,-18255,1530.346,954.454,-3.042,-3.009
54311,1352853411.68,9364701,35517,-18247,1543.808,984.197,-3.088,-3.077
54324,1352853411.72,9364701,35485,-18225,1553.902,982.4689999999999,-3.093,3.109
54337,1352853411.757,9364701,35447,-18222,1544.101,1038.789,-3.127,3.1039999999999996
54350,1352853411.797,9364701,35392,-18231,1552.596,987.283,3.094,3.03
54363,1352853411.837,9364701,35356,-18226,1556.0970000000002,959.199,3.0839999999999996,3.073
54376,1352853411.8739998,9364701,35307,-18217,1583.695,983.857,3.016,3.048
54389,1352853411.91,9364701,35267,-18219,1603.362,985.568,3.076,3.0989999999999998
54402,1352853411.948,9364701,35247,-18213,1597.115,936.133,3.07,3.068
54415,1352853411.985,9364701,35242,-18218,1591.0179999999998,842.132,3.029,3.0239999999999996
54428,1352853412.022,9364701,35195,-18224,1612.6770000000001,862.315,3.0439999999999996,3.0589999999999997
54441,1352853412.058,9364701,35161,-18243,1605.34,880.9780000000001,-3.094,-3.0810000000000004
54454,1352853412.0939999,9364701,35132,-18246,1594.442,871.171,-2.9589999999999996,-2.985
54467,1352853412.1339998,9364701,35152,-18232,1578.306,758.931,-2.984,-3.0239999999999996
54480,1352853412.171,9364701,35166,-18217,1564.6989999999998,708.585,3.128,3.12
54492,1352853412.2089999,9364701,35124,-18229,1574.6689999999999,702.429,-3.109,-3.11
54504,1352853412.247,9364701,35077,-18234,1586.628,727.055,-3.097,-3.135
54515,1352853412.289,9364701,35003,-18246,1604.267,798.0060000000001,-3.049,-3.102
54526,1352853412.326,9364701,34955,-18253,1605.904,821.846,-3.032,-3.055
54537,1352853412.363,9364701,34912,-18274,1606.634,872.834,-2.929,-3.008
54548,1352853412.4,9364701,34865,-18304,1609.085,886.3939999999999,-2.859,-2.8930000000000002
54559,1352853412.437,9364701,34804,-18322,1611.674,973.15,-2.873,-2.873
54570,1352853412.475,9364701,34753,-18337,1611.0720000000001,1118.529,-2.855,-2.898
54581,1352853412.51,9364701,34703,-18345,1610.746,1169.6760000000002,-2.859,-2.918
54592,1352853412.545,9364701,34700,-18329,1605.1370000000002,1059.854,-2.927,-2.9619999999999997
54603,1352853412.582,9364701,34696,-18297,1599.016,918.34,-3.04,-3.0639999999999996
54614,1352853412.6169999,9364701,34672,-18273,1592.615,813.074,3.088,3.0380000000000003
54625,1352853412.655,9364701,34643,-18245,1586.765,708.591,2.786,2.7739999999999996
54636,1352853412.693,9364701,34615,-18233,1569.351,648.43,2.717,2.7289999999999996
54647,1352853412.7289999,9364701,34571,-18207,1564.621,716.163,2.576,2.553
54658,1352853412.766,9364701,34524,-18185,1563.494,729.127,2.476,2.469
54669,1352853412.802,9364701,34501,-18155,1571.876,741.305,2.476,2.504
54680,1352853412.84,9364701,34465,-18137,1580.67,743.757,2.365,2.424
54691,1352853412.878,9364701,34439,-18109,1573.53,769.025,2.345,2.372
54702,1352853412.92,9364701,34420,-18092,1568.184,790.992,2.407,2.405
54713,1352853412.955,9364701,34392,-18082,1565.681,788.875,2.406,2.418
54724,1352853412.9910002,9364701,34359,-18079,1561.408,821.706,2.456,2.423
54735,1352853413.03,9364701,34348,-18054,1556.8129999999999,820.605,2.421,2.419
54746,1352853413.068,9364701,34322,-18032,1549.0529999999999,822.5139999999999,2.411,2.468
54757,1352853413.105,9364701,34302,-18042,1542.3729999999998,771.0930000000001,2.426,2.4859999999999998
54768,1352853413.142,9364701,34268,-18048,1541.35,736.416,2.492,2.529
54779,1352853413.182,9364701,34244,-18057,1540.3410000000001,692.059,2.576,2.592
54790,1352853413.221,9364701,34206,-18040,1532.5710000000001,712.633,2.53,2.612
54801,1352853413.257,9364701,34148,-18020,1524.295,779.959,2.59,2.642
54812,1352853413.295,9364701,34111,-17996,1516.875,788.654,2.565,2.6660000000000004
54823,1352853413.331,9364701,34077,-17975,1539.32,782.6360000000001,2.536,2.627
54834,1352853413.369,9364701,34049,-17955,1551.0479999999998,765.623,2.555,2.635
54845,1352853413.4060001,9364701,33994,-17952,1546.628,727.2410000000001,2.6260000000000003,2.65
54856,1352853413.443,9364701,33966,-17958,1540.029,721.193,2.633,2.661
54867,1352853413.478,9364701,33942,-17953,1534.934,737.941,2.665,2.71
54878,1352853413.516,9364701,33899,-17940,1531.2120000000002,785.796,2.676,2.7289999999999996
54889,1352853413.556,9364701,33848,-17925,1553.141,779.456,2.679,2.718
54901,1352853413.596,9364701,33801,-17928,1552.241,792.748,2.7889999999999997,2.78
54913,1352853413.635,9364701,33765,-17935,1549.901,855.94,2.827,2.8360000000000003
54925,1352853413.674,9364701,33690,-17935,1550.235,964.903,2.8560000000000003,2.835
54937,1352853413.712,9364701,33634,-17936,1550.8110000000001,1066.865,2.9019999999999997,2.8480000000000003
54949,1352853413.7519999,9364701,33579,-17915,1551.2060000000001,1102.899,2.824,2.795
54961,1352853413.79,9364701,33565,-17862,1535.525,1128.996,2.693,2.668
54973,1352853413.827,9364701,33558,-17807,1521.4260000000002,1180.461,2.613,2.59
54985,1352853413.862,9364701,33538,-17779,1509.8029999999999,1201.442,2.612,2.602
54997,1352853413.9,9364701,33488,-17777,1533.473,1234.767,2.6639999999999997,2.6639999999999997
55009,1352853413.935,9364701,33422,-17773,1529.935,1238.32,2.735,2.742
55021,1352853413.971,9364701,33387,-17751,1523.392,1205.894,2.725,2.741
55033,1352853414.0089998,9364701,33359,-17718,1513.5379999999998,1139.548,2.6830000000000003,2.737
55045,1352853414.047,9364701,33319,-17740,1509.933,1001.7819999999999,2.742,2.8089999999999997
55056,1352853414.085,9364701,33279,-17737,1511.713,957.2919999999999,2.7760000000000002,2.8360000000000003
55067,1352853414.1239998,9364701,33263,-17699,1505.453,992.188,2.795,2.82
55078,1352853414.164,9364701,33265,-17657,1500.1979999999999,946.87,2.682,2.738
55089,1352853414.202,9364701,33246,-17638,1497.19,964.66,2.661,2.697
55100,1352853414.2410002,9364701,33218,-17622,1494.951,950.715,2.6719999999999997,2.654
55111,1352853414.28,9364701,33155,-17611,1494.351,970.298,2.642,2.667
55122,1352853414.315,9364701,33107,-17594,1494.307,944.926,2.655,2.7319999999999998
55133,1352853414.353,9364701,33056,-17602,1492.475,976.563,2.807,2.8739999999999997
55144,1352853414.392,9364701,33012,-17637,1492.796,880.2280000000001,2.9410000000000003,3.012
55155,1352853414.43,9364701,32983,-17644,1492.615,877.9830000000001,3.017,3.068
55166,1352853414.4689999,9364701,32954,-17658,1492.105,871.632,3.082,3.125
55177,1352853414.5089998,9364701,32941,-17640,1491.526,837.6410000000001,3.085,3.0860000000000003
55188,1352853414.546,9364701,32881,-17660,1496.235,910.071,3.095,3.054
55199,1352853414.585,9364701,32802,-17678,1498.906,988.39,3.043,2.986
55210,1352853414.621,9364701,32745,-17680,1495.3329999999999,1132.195,2.977,2.923
55221,1352853414.657,9364701,32645,-17689,1490.82,1255.9769999999999,2.9539999999999997,2.9419999999999997
55232,1352853414.693,9364701,32571,-17689,1489.87,1393.275,2.931,2.908
55243,1352853414.73,9364701,32495,-17681,1496.604,1467.516,2.905,2.9189999999999996
55254,1352853414.765,9364701,32426,-17677,1496.1960000000001,1544.866,2.7960000000000003,2.86
55265,1352853414.805,9364701,32368,-17669,1495.904,1485.165,2.7889999999999997,2.878
55276,1352853414.842,9364701,32352,-17669,1496.835,1366.9479999999999,2.7710000000000004,2.8810000000000002
55288,1352853414.878,9364701,32213,-17557,1476.7979999999998,1489.7910000000002,2.576,2.799
55300,1352853414.917,9364701,32197,-17518,1461.745,1381.162,2.5989999999999998,2.799
55312,1352853414.954,9364701,32155,-17492,1447.515,1379.0439999999999,2.676,2.826
55324,1352853414.9910002,9364701,32103,-17502,1447.281,1400.68,2.7880000000000003,2.842
55336,1352853415.029,9364701,32051,-17513,1446.7939999999999,1376.598,2.8369999999999997,2.878
55348,1352853415.064,9364701,32005,-17496,1437.005,1384.34,2.82,2.8510000000000004
55360,1352853415.103,9364701,31953,-17475,1427.579,1325.17,2.858,2.9139999999999997
55372,1352853415.14,9364701,31923,-17459,1418.5079999999998,1228.097,2.866,2.917
55384,1352853415.177,9364701,31904,-17463,1407.692,1050.792,2.93,3.0010000000000003
55396,1352853415.216,9364701,31863,-17457,1407.5929999999998,1044.057,2.926,3.0189999999999997
55408,1352853415.256,9364701,31841,-17447,1396.146,1065.631,2.812,2.9130000000000003
55420,1352853415.292,9364701,31822,-17418,1384.332,1052.0739999999998,2.764,2.81
55432,1352853415.331,9364701,31752,-17398,1382.759,1089.887,2.807,2.8110000000000004
55444,1352853415.37,9364701,31718,-17376,1379.951,1069.565,2.79,2.7960000000000003
55456,1352853415.407,9364701,31634,-17382,1378.8970000000002,1012.6,2.824,2.775
55468,1352853415.448,9364701,31606,-17400,1377.274,848.044,2.898,2.908
55480,1352853415.485,9364701,31628,-17305,1375.315,873.825,2.713,2.697
55492,1352853415.524,9364701,31635,-17275,1375.1989999999998,769.6160000000001,2.613,2.6039999999999996
55504,1352853415.56,9364701,31610,-17271,1374.924,755.3939999999999,2.6289999999999996,2.719
55516,1352853415.597,9364701,31620,-17225,1373.0339999999999,604.992,2.459,2.549
55528,1352853415.635,9364701,31623,-17203,1371.6329999999998,606.807,2.42,2.403
55540,1352853415.67,9364701,31611,-17187,1371.245,607.95,2.2840000000000003,2.435
55552,1352853415.705,9364701,31595,-17170,1371.245,610.72,2.245,2.476
55564,1352853415.7419999,9364701,31597,-17185,1366.4160000000002,635.837,2.392,2.454
55576,1352853415.7810001,9364701,31577,-17182,1362.264,587.981,2.3680000000000003,2.492
55588,1352853415.817,9364701,31560,-17159,1362.283,570.831,2.47,2.495
55600,1352853415.853,9364701,31495,-17167,1356.226,609.604,2.589,2.563
55612,1352853415.891,9364701,31442,-17170,1348.879,658.525,2.5610000000000004,2.542
55624,1352853415.929,9364701,31407,-17171,1343.259,698.138,2.536,2.5669999999999997
55636,1352853415.967,9364701,31393,-17164,1338.744,712.1110000000001,2.489,2.5540000000000003
55648,1352853416.004,9364701,31367,-17168,1335.943,726.543,2.517,2.58
55660,1352853416.0410001,9364701,31332,-17165,1333.2020000000002,767.4,2.553,2.6
55672,1352853416.077,9364701,31301,-17144,1331.475,825.428,2.515,2.572
55684,1352853416.1139998,9364701,31284,-17138,1330.652,784.8960000000001,2.4730000000000003,2.491
55696,1352853416.149,9364701,31263,-17112,1330.646,834.0419999999999,2.436,2.508
55708,1352853416.186,9364701,31240,-17093,1330.646,840.247,2.449,2.526
55720,1352853416.222,9364701,31221,-17073,1330.646,810.1489999999999,2.347,2.573
55732,1352853416.2589998,9364701,31166,-17033,1420.5510000000002,903.318,2.378,2.4330000000000003
55744,1352853416.296,9364701,31133,-17033,1456.6979999999999,924.61,2.45,2.4290000000000003
55756,1352853416.3339999,9364701,31115,-17028,1455.951,925.0239999999999,2.461,2.4659999999999997
55768,1352853416.37,9364701,31093,-17032,1452.5220000000002,855.635,2.551,2.59
55780,1352853416.408,9364701,31106,-17051,1445.618,849.321,2.5869999999999997,2.6189999999999998
55792,1352853416.447,9364701,31136,-17054,1432.974,758.6439999999999,2.52,2.6189999999999998
55804,1352853416.485,9364701,31107,-17038,1433.225,901.831,2.543,2.6489999999999996
55816,1352853416.523,9364701,31111,-17032,1425.336,962.054,2.615,2.605
55828,1352853416.559,9364701,31110,-17032,1418.9170000000001,860.89,2.6430000000000002,2.5860000000000003
