,time,id,x,y,z,velocity,angle of motion,facing angle
56156,1352853417.576,9365700,-8476,-9565,1849.98,77.876,2.136,0.0
56169,1352853417.615,9365700,-8475,-9563,1843.16,40.404,2.142,2.115
56182,1352853417.653,9365700,-8482,-9551,1797.6960000000001,170.347,2.142,2.101
56195,1352853417.692,9365700,-8491,-9534,1770.5439999999999,334.43800000000005,1.975,2.176
56208,1352853417.73,9365700,-8499,-9535,1730.705,408.356,2.082,2.119
56221,1352853417.767,9365700,-8507,-9528,1720.99,454.87,2.168,2.102
56234,1352853417.806,9365700,-8516,-9502,1782.832,493.785,2.175,2.156
56247,1352853417.842,9365700,-8529,-9487,1796.0910000000001,527.491,2.112,2.182
56260,1352853417.879,9365700,-8545,-9460,1781.9879999999998,539.365,2.122,2.1919999999999997
56273,1352853417.913,9365700,-8553,-9441,1768.545,586.4590000000001,2.217,2.248
56286,1352853417.949,9365700,-8556,-9424,1770.025,599.237,2.2230000000000003,2.2359999999999998
56299,1352853417.986,9365700,-8576,-9398,1779.506,627.756,2.228,2.225
56312,1352853418.026,9365700,-8597,-9379,1779.259,579.401,2.2680000000000002,2.255
56325,1352853418.062,9365700,-8609,-9358,1778.989,625.063,2.199,2.213
56338,1352853418.099,9365700,-8618,-9331,1776.451,674.02,2.161,2.12
56351,1352853418.1360002,9365700,-8616,-9323,1782.0639999999999,651.138,2.117,2.086
56364,1352853418.177,9365700,-8620,-9316,1768.869,624.077,2.154,2.084
56377,1352853418.215,9365700,-8633,-9281,1772.057,654.469,2.13,2.046
56391,1352853418.253,9365700,-8627,-9248,1783.8629999999998,643.946,1.995,2.016
56405,1352853418.2910001,9365700,-8643,-9232,1787.336,657.065,1.9669999999999999,2.0
56419,1352853418.328,9365700,-8649,-9229,1579.444,695.635,1.9680000000000002,2.036
56433,1352853418.365,9365700,-8650,-9228,1503.0120000000002,668.748,1.989,2.0780000000000003
56447,1352853418.404,9365700,-8654,-9202,1440.088,637.409,1.851,2.001
56461,1352853418.442,9365700,-8668,-9192,1422.144,631.331,1.903,1.9580000000000002
56475,1352853418.4789999,9365700,-8689,-9175,1407.2089999999998,729.155,1.996,1.9780000000000002
56489,1352853418.516,9365700,-8696,-9155,1397.368,788.194,1.986,1.963
56503,1352853418.553,9365700,-8697,-9135,1381.796,809.312,1.9880000000000002,1.94
56517,1352853418.592,9365700,-8718,-9113,1563.119,834.648,1.963,1.9280000000000002
56531,1352853418.632,9365700,-8740,-9100,1637.271,791.2860000000001,1.956,1.87
56545,1352853418.668,9365700,-8760,-9096,1659.244,821.2919999999999,1.889,1.8659999999999999
56559,1352853418.702,9365700,-8762,-9078,1660.871,841.954,1.8330000000000002,1.8019999999999998
56573,1352853418.738,9365700,-8771,-9055,1662.566,855.7810000000001,1.859,1.804
56587,1352853418.777,9365700,-8782,-9030,1658.003,823.529,1.8319999999999999,1.7830000000000001
56601,1352853418.812,9365700,-8816,-9010,1657.889,840.737,1.903,1.815
56615,1352853418.847,9365700,-8826,-8999,1657.47,810.99,1.921,1.847
56629,1352853418.885,9365700,-8843,-8977,1669.9189999999999,771.2360000000001,1.849,1.8619999999999999
56643,1352853418.927,9365700,-8846,-8951,1673.192,829.9960000000001,1.8219999999999998,1.821
56657,1352853418.964,9365700,-8854,-8927,1676.158,824.2660000000001,1.7730000000000001,1.744
56671,1352853419.0019999,9365700,-8857,-8904,1674.611,851.8580000000001,1.692,1.649
56685,1352853419.04,9365700,-8867,-8885,1681.77,866.303,1.652,1.61
56699,1352853419.079,9365700,-8866,-8855,1689.8310000000001,918.169,1.531,1.506
56713,1352853419.118,9365700,-8863,-8832,1692.7479999999998,951.8939999999999,1.463,1.495
56727,1352853419.152,9365700,-8873,-8816,1577.251,950.288,1.507,1.514
56741,1352853419.188,9365700,-8879,-8796,1551.638,936.9110000000001,1.506,1.5590000000000002
56755,1352853419.226,9365700,-8882,-8757,1643.094,906.913,1.5219999999999998,1.5830000000000002
56769,1352853419.265,9365700,-8871,-8719,1663.612,967.9739999999999,1.496,1.525
56783,1352853419.303,9365700,-8858,-8695,1676.0220000000002,969.873,1.4609999999999999,1.492
56797,1352853419.339,9365700,-8864,-8669,1682.8220000000001,946.9839999999999,1.462,1.474
56811,1352853419.3769999,9365700,-8881,-8649,1572.6329999999998,896.9830000000001,1.476,1.5219999999999998
56825,1352853419.4160001,9365700,-8891,-8614,1561.507,842.625,1.5130000000000001,1.5759999999999998
56839,1352853419.454,9365700,-8898,-8599,1657.138,870.6460000000001,1.57,1.565
56853,1352853419.49,9365700,-8894,-8597,1593.776,789.453,1.504,1.5430000000000001
56867,1352853419.528,9365700,-8881,-8597,1566.933,703.186,1.41,1.462
56881,1352853419.565,9365700,-8865,-8596,1502.241,620.066,1.3869999999999998,1.359
56895,1352853419.599,9365700,-8853,-8590,1495.835,643.55,1.31,1.286
56909,1352853419.641,9365700,-8847,-8573,1510.9470000000001,554.549,1.249,1.28
56923,1352853419.679,9365700,-8837,-8555,1516.365,563.406,1.2830000000000001,1.327
56937,1352853419.715,9365700,-8823,-8542,1522.902,591.065,1.219,1.317
56951,1352853419.754,9365700,-8821,-8528,1523.5629999999999,569.625,1.22,1.3330000000000002
56965,1352853419.79,9365700,-8823,-8521,1451.83,566.98,1.1840000000000002,1.324
56979,1352853419.827,9365700,-8829,-8508,1427.642,610.365,1.23,1.274
56993,1352853419.8639998,9365700,-8826,-8489,1440.013,593.215,1.266,1.2590000000000001
57007,1352853419.9,9365700,-8839,-8488,1532.9379999999999,587.425,1.339,1.2819999999999998
57021,1352853419.94,9365700,-8842,-8474,1584.8270000000002,616.669,1.288,1.3119999999999998
57035,1352853419.978,9365700,-8854,-8465,1589.851,708.7439999999999,1.338,1.314
57049,1352853420.015,9365700,-8857,-8437,1503.1429999999998,767.307,1.324,1.328
57063,1352853420.053,9365700,-8871,-8420,1477.4389999999999,832.69,1.3530000000000002,1.314
57077,1352853420.09,9365700,-8898,-8395,1569.19,898.061,1.25,1.294
57091,1352853420.1269999,9365700,-8920,-8352,1589.6879999999999,994.334,1.341,1.314
57105,1352853420.164,9365700,-8929,-8305,1594.2920000000001,1048.14,1.324,1.32
57119,1352853420.199,9365700,-8941,-8265,1602.4520000000002,1070.5539999999999,1.3630000000000002,1.3519999999999999
57133,1352853420.236,9365700,-8949,-8222,1604.891,1017.1160000000001,1.41,1.429
57147,1352853420.272,9365700,-8968,-8183,1618.381,1062.094,1.364,1.45
57161,1352853420.31,9365700,-8969,-8148,1622.6229999999998,1028.726,1.3869999999999998,1.479
57175,1352853420.346,9365700,-8984,-8117,1672.557,1007.951,1.459,1.531
57189,1352853420.39,9365700,-9007,-8092,1700.961,949.585,1.545,1.5919999999999999
57203,1352853420.429,9365700,-9021,-8063,1707.1629999999998,932.2260000000001,1.635,1.641
57217,1352853420.466,9365700,-9040,-8031,1737.615,927.318,1.6580000000000001,1.663
57231,1352853420.505,9365700,-9078,-8003,1746.8039999999999,975.498,1.765,1.766
57245,1352853420.542,9365700,-9104,-7988,1755.965,986.431,1.83,1.8319999999999999
57259,1352853420.579,9365700,-9135,-7980,1757.6960000000001,911.5160000000001,1.915,1.901
57273,1352853420.6160002,9365700,-9158,-7954,1757.4579999999999,887.1560000000001,1.946,1.896
57287,1352853420.654,9365700,-9194,-7950,1757.9379999999999,878.654,2.0380000000000003,1.97
57301,1352853420.692,9365700,-9216,-7950,1762.263,787.5,2.0269999999999997,1.975
57315,1352853420.728,9365700,-9234,-7958,1763.602,730.284,2.011,1.984
57329,1352853420.765,9365700,-9254,-7942,1752.588,817.544,2.004,1.936
57343,1352853420.801,9365700,-9271,-7914,1755.8239999999998,795.512,2.0340000000000003,1.885
57357,1352853420.839,9365700,-9302,-7894,1757.2179999999998,789.0260000000001,2.012,1.911
57371,1352853420.8760002,9365700,-9321,-7872,1779.03,806.085,1.982,1.912
57385,1352853420.915,9365700,-9327,-7854,1775.977,806.654,1.8769999999999998,1.8419999999999999
57399,1352853420.953,9365700,-9331,-7843,1764.201,727.904,1.882,1.8630000000000002
57413,1352853420.993,9365700,-9320,-7842,1738.306,651.947,1.839,1.916
57427,1352853421.032,9365700,-9324,-7840,1706.4189999999999,589.2819999999999,1.8940000000000001,1.933
57441,1352853421.07,9365700,-9320,-7852,1692.765,553.197,1.821,1.922
57455,1352853421.112,9365700,-9332,-7845,1681.6370000000002,568.28,1.9809999999999999,1.9580000000000002
57469,1352853421.15,9365700,-9339,-7832,1660.646,595.3530000000001,1.892,1.8619999999999999
57483,1352853421.185,9365700,-9348,-7802,1715.775,531.98,1.84,1.766
57497,1352853421.221,9365700,-9352,-7785,1734.02,541.003,1.7619999999999998,1.7380000000000002
57511,1352853421.256,9365700,-9360,-7766,1740.095,596.8290000000001,1.744,1.757
57525,1352853421.292,9365700,-9365,-7746,1716.755,620.6659999999999,1.756,1.7930000000000001
57539,1352853421.332,9365700,-9366,-7727,1702.095,664.12,1.681,1.766
57553,1352853421.369,9365700,-9363,-7705,1559.046,676.832,1.709,1.8090000000000002
57567,1352853421.403,9365700,-9368,-7684,1563.2520000000002,749.279,1.744,1.791
57581,1352853421.441,9365700,-9364,-7644,1709.39,799.857,1.661,1.724
57595,1352853421.478,9365700,-9369,-7613,1716.9379999999999,822.32,1.598,1.662
57609,1352853421.516,9365700,-9365,-7574,1726.993,882.51,1.66,1.6369999999999998
57623,1352853421.553,9365700,-9353,-7556,1745.3039999999999,875.6510000000001,1.6969999999999998,1.63
57637,1352853421.591,9365700,-9344,-7539,1746.369,865.336,1.65,1.6369999999999998
57650,1352853421.6269999,9365700,-9334,-7519,1757.088,874.488,1.632,1.643
57663,1352853421.662,9365700,-9326,-7501,1769.223,883.9910000000001,1.6,1.6230000000000002
57676,1352853421.702,9365700,-9331,-7479,1770.223,833.567,1.5959999999999999,1.608
57689,1352853421.7419999,9365700,-9331,-7460,1767.5529999999999,814.419,1.6059999999999999,1.5930000000000002
57702,1352853421.779,9365700,-9327,-7432,1772.795,838.1110000000001,1.626,1.655
57715,1352853421.819,9365700,-9316,-7395,1773.16,802.187,1.581,1.646
57728,1352853421.858,9365700,-9315,-7400,1766.819,766.095,1.618,1.653
57741,1352853421.895,9365700,-9321,-7398,1764.615,695.97,1.584,1.626
57754,1352853421.928,9365700,-9312,-7427,1738.527,694.456,1.6,1.6019999999999999
57767,1352853421.963,9365700,-9312,-7415,1594.906,741.253,1.5330000000000001,1.558
57780,1352853421.9980001,9365700,-9305,-7398,1718.756,694.055,1.499,1.537
57793,1352853422.035,9365700,-9317,-7372,1774.4270000000001,761.418,1.4980000000000002,1.5430000000000001
57806,1352853422.069,9365700,-9325,-7345,1778.049,718.237,1.4869999999999999,1.48
57818,1352853422.108,9365700,-9344,-7327,1784.491,742.706,1.531,1.483
57830,1352853422.145,9365700,-9378,-7297,1816.6529999999998,686.6339999999999,1.494,1.49
57842,1352853422.181,9365700,-9430,-7263,1809.8770000000002,675.248,1.531,1.518
57853,1352853422.216,9365700,-9459,-7240,1809.985,723.178,1.517,1.5019999999999998
57864,1352853422.2489998,9365700,-9481,-7206,1785.851,730.703,1.5959999999999999,1.525
57875,1352853422.285,9365700,-9492,-7191,1783.646,699.7439999999999,1.577,1.515
57886,1352853422.318,9365700,-9503,-7159,1795.215,721.363,1.564,1.556
57897,1352853422.352,9365700,-9522,-7144,1694.8570000000002,747.2130000000001,1.632,1.585
57908,1352853422.385,9365700,-9532,-7140,1653.898,737.841,1.681,1.636
57919,1352853422.418,9365700,-9547,-7123,1641.066,817.676,1.54,1.587
57930,1352853422.451,9365700,-9570,-7110,1648.338,831.013,1.518,1.489
57941,1352853422.484,9365700,-9571,-7104,1645.442,878.178,1.473,1.4880000000000002
57951,1352853422.517,9365700,-9565,-7104,1638.9520000000002,842.1410000000001,1.4709999999999999,1.462
57961,1352853422.55,9365700,-9584,-7095,1623.7060000000001,820.564,1.459,1.505
57971,1352853422.583,9365700,-9581,-7078,1622.543,831.423,1.463,1.527
57981,1352853422.6160002,9365700,-9574,-7069,1622.1170000000002,826.877,1.4269999999999998,1.541
57991,1352853422.649,9365700,-9581,-7070,1623.2979999999998,763.053,1.541,1.526
58001,1352853422.682,9365700,-9591,-7053,1625.066,760.428,1.58,1.526
58011,1352853422.715,9365700,-9600,-7047,1623.954,755.418,1.632,1.558
58021,1352853422.7480001,9365700,-9596,-7024,1638.911,753.423,1.5659999999999998,1.483
58031,1352853422.7810001,9365700,-9608,-6998,1644.7879999999998,842.7639999999999,1.511,1.482
58041,1352853422.814,9365700,-9608,-6976,1645.386,983.166,1.4680000000000002,1.486
58051,1352853422.847,9365700,-9609,-6948,1402.275,1011.755,1.4909999999999999,1.4480000000000002
58061,1352853422.88,9365700,-9618,-6930,1391.746,947.3530000000001,1.4069999999999998,1.412
58071,1352853422.913,9365700,-9621,-6931,1430.4070000000002,860.3739999999999,1.37,1.3940000000000001
58081,1352853422.946,9365700,-9623,-6904,1453.068,908.2339999999999,1.405,1.386
58091,1352853422.9789999,9365700,-9620,-6869,1455.0539999999999,969.058,1.474,1.465
58101,1352853423.012,9365700,-9617,-6851,1567.128,1003.2610000000001,1.4580000000000002,1.456
58111,1352853423.045,9365700,-9622,-6821,1576.69,1015.023,1.483,1.484
58121,1352853423.078,9365700,-9630,-6812,1578.987,1035.816,1.5390000000000001,1.5190000000000001
58131,1352853423.111,9365700,-9624,-6791,1574.809,1077.411,1.515,1.528
58142,1352853423.144,9365700,-9632,-6760,1581.4160000000002,1058.805,1.554,1.5590000000000002
58153,1352853423.18,9365700,-9633,-6734,1547.9160000000002,1100.65,1.635,1.565
58164,1352853423.217,9365700,-9635,-6693,1551.386,1121.633,1.618,1.564
58175,1352853423.253,9365700,-9636,-6665,1573.664,1085.762,1.629,1.574
58186,1352853423.293,9365700,-9639,-6621,1582.392,1112.335,1.645,1.6030000000000002
58197,1352853423.331,9365700,-9648,-6576,1573.726,1113.619,1.65,1.618
58209,1352853423.369,9365700,-9652,-6558,1569.641,1100.077,1.6909999999999998,1.617
58221,1352853423.403,9365700,-9657,-6525,1575.741,1188.113,1.5830000000000002,1.561
58233,1352853423.438,9365700,-9656,-6495,1504.1170000000002,1184.348,1.5859999999999999,1.5630000000000002
58245,1352853423.475,9365700,-9672,-6477,1482.634,1108.552,1.58,1.535
58257,1352853423.5110002,9365700,-9682,-6460,1490.1789999999999,1045.25,1.557,1.5530000000000002
58269,1352853423.546,9365700,-9710,-6453,1565.4129999999998,1023.135,1.626,1.594
58281,1352853423.583,9365700,-9732,-6446,1601.5829999999999,1006.709,1.6,1.636
58293,1352853423.619,9365700,-9742,-6427,1599.096,923.4939999999999,1.6340000000000001,1.6740000000000002
58305,1352853423.657,9365700,-9750,-6427,1592.13,875.557,1.65,1.6969999999999998
58317,1352853423.691,9365700,-9752,-6431,1583.1879999999999,763.466,1.665,1.734
58329,1352853423.728,9365700,-9753,-6427,1585.749,747.145,1.6769999999999998,1.751
58341,1352853423.764,9365700,-9760,-6426,1589.769,707.3580000000001,1.6869999999999998,1.7080000000000002
58353,1352853423.802,9365700,-9765,-6415,1593.2720000000002,697.07,1.6680000000000001,1.676
58365,1352853423.839,9365700,-9789,-6402,1595.5079999999998,728.164,1.757,1.719
58377,1352853423.8730001,9365700,-9796,-6386,1600.5870000000002,743.711,1.817,1.743
58389,1352853423.911,9365700,-9819,-6365,1659.9360000000001,797.9760000000001,1.864,1.8530000000000002
58401,1352853423.947,9365700,-9844,-6355,1679.31,778.0189999999999,1.9469999999999998,1.959
58413,1352853423.986,9365700,-9844,-6328,1647.21,821.175,1.911,1.943
58425,1352853424.0210001,9365700,-9855,-6302,1712.105,854.4169999999999,1.9369999999999998,1.94
58437,1352853424.061,9365700,-9872,-6268,1718.2679999999998,843.181,2.0140000000000002,1.993
58449,1352853424.098,9365700,-9894,-6261,1720.39,785.2639999999999,2.05,2.0180000000000002
58461,1352853424.1339998,9365700,-9918,-6240,1729.27,754.184,2.0709999999999997,2.0909999999999997
58474,1352853424.173,9365700,-9928,-6229,1732.88,725.018,2.02,2.035
58486,1352853424.207,9365700,-9927,-6221,1733.4660000000001,772.5269999999999,2.0469999999999997,2.046
58498,1352853424.245,9365700,-9927,-6195,1684.1889999999999,852.081,1.9869999999999999,2.0180000000000002
58510,1352853424.282,9365700,-9918,-6161,1676.0079999999998,875.258,1.8780000000000001,1.9140000000000001
58522,1352853424.318,9365700,-9929,-6118,1666.979,911.955,1.891,1.8880000000000001
58534,1352853424.352,9365700,-9947,-6087,1669.9879999999998,896.346,1.925,1.889
58547,1352853424.387,9365700,-9934,-6059,1672.6529999999998,909.768,1.886,1.879
58560,1352853424.424,9365700,-9926,-6022,1691.3339999999998,1002.23,1.775,1.8419999999999999
58573,1352853424.462,9365700,-9914,-5986,1691.5910000000001,1022.442,1.7719999999999998,1.834
58587,1352853424.497,9365700,-9921,-5955,1691.5970000000002,1057.549,1.8330000000000002,1.808
58601,1352853424.533,9365700,-9923,-5910,1708.3039999999999,1096.701,1.768,1.8
58615,1352853424.569,9365700,-9932,-5878,1695.5320000000002,1146.299,1.766,1.7730000000000001
58629,1352853424.605,9365700,-9923,-5847,1692.536,1082.968,1.764,1.746
58643,1352853424.64,9365700,-9924,-5810,1643.12,1147.364,1.79,1.7690000000000001
58657,1352853424.676,9365700,-9927,-5778,1633.8120000000001,1108.2939999999999,1.797,1.778
58671,1352853424.712,9365700,-9935,-5749,1630.898,1153.2060000000001,1.791,1.79
58685,1352853424.7519999,9365700,-9933,-5708,1616.131,1196.336,1.73,1.739
58699,1352853424.792,9365700,-9928,-5681,1614.875,1121.005,1.732,1.712
58713,1352853424.831,9365700,-9937,-5661,1614.832,1083.624,1.739,1.696
58727,1352853424.8660002,9365700,-9934,-5631,1664.361,1067.274,1.725,1.679
58741,1352853424.904,9365700,-9932,-5604,1663.796,1119.991,1.6909999999999998,1.702
58755,1352853424.94,9365700,-9915,-5572,1681.021,1147.356,1.58,1.6380000000000001
58769,1352853424.98,9365700,-9892,-5542,1688.2820000000002,1097.088,1.534,1.587
58783,1352853425.017,9365700,-9875,-5514,1692.646,1042.8410000000001,1.52,1.508
58797,1352853425.055,9365700,-9858,-5467,1689.146,1088.917,1.443,1.449
58812,1352853425.0939999,9365700,-9841,-5441,1689.6629999999998,987.585,1.422,1.429
58827,1352853425.129,9365700,-9840,-5419,1659.396,993.8480000000001,1.341,1.405
58842,1352853425.165,9365700,-9824,-5399,1655.171,952.927,1.3559999999999999,1.389
58857,1352853425.202,9365700,-9809,-5390,1652.874,985.308,1.383,1.3730000000000002
58872,1352853425.2419999,9365700,-9808,-5350,1644.406,1022.788,1.379,1.3730000000000002
58887,1352853425.28,9365700,-9819,-5312,1646.638,1069.57,1.4340000000000002,1.383
58902,1352853425.317,9365700,-9818,-5256,1613.601,1108.871,1.484,1.412
58917,1352853425.353,9365700,-9813,-5215,1607.505,1160.974,1.452,1.4040000000000001
58932,1352853425.3930001,9365700,-9805,-5188,1626.933,1098.907,1.4040000000000001,1.375
58947,1352853425.429,9365700,-9799,-5163,1633.1629999999998,1083.768,1.364,1.376
58962,1352853425.47,9365700,-9790,-5136,1573.1689999999999,1043.911,1.3319999999999999,1.334
58977,1352853425.5110002,9365700,-9777,-5112,1580.5179999999998,1071.904,1.3259999999999998,1.3119999999999998
58992,1352853425.551,9365700,-9772,-5068,1629.97,1025.2730000000001,1.36,1.307
59007,1352853425.59,9365700,-9778,-5021,1644.3229999999999,1025.183,1.4080000000000001,1.349
59022,1352853425.628,9365700,-9767,-4983,1634.3029999999999,986.995,1.357,1.3159999999999998
59037,1352853425.663,9365700,-9745,-4955,1634.391,945.582,1.3159999999999998,1.294
59052,1352853425.698,9365700,-9738,-4930,1647.8239999999998,930.413,1.319,1.298
59067,1352853425.738,9365700,-9708,-4898,1649.751,930.426,1.2690000000000001,1.246
59082,1352853425.777,9365700,-9705,-4852,1621.912,904.107,1.237,1.2590000000000001
59097,1352853425.813,9365700,-9694,-4809,1615.93,908.971,1.218,1.306
59112,1352853425.851,9365700,-9700,-4780,1633.01,864.934,1.321,1.364
59127,1352853425.888,9365700,-9718,-4757,1628.9070000000002,783.041,1.324,1.436
59142,1352853425.926,9365700,-9727,-4744,1629.6529999999998,744.413,1.367,1.395
59157,1352853425.965,9365700,-9719,-4733,1578.375,722.4069999999999,1.4280000000000002,1.415
59172,1352853426.003,9365700,-9703,-4711,1566.2720000000002,735.4780000000001,1.317,1.3769999999999998
59187,1352853426.04,9365700,-9695,-4674,1632.76,743.847,1.324,1.3519999999999999
59202,1352853426.078,9365700,-9675,-4642,1739.736,820.1030000000001,1.33,1.382
59217,1352853426.1160002,9365700,-9667,-4600,1729.4560000000001,865.612,1.34,1.392
59232,1352853426.155,9365700,-9667,-4547,1760.594,870.855,1.4509999999999998,1.47
59247,1352853426.193,9365700,-9667,-4509,1764.0439999999999,742.6360000000001,1.486,1.506
59262,1352853426.23,9365700,-9665,-4470,1764.819,786.3939999999999,1.486,1.536
59277,1352853426.273,9365700,-9652,-4439,1754.26,779.799,1.5,1.486
59292,1352853426.312,9365700,-9660,-4407,1751.0,756.4889999999999,1.5330000000000001,1.485
59307,1352853426.35,9365700,-9673,-4351,1755.2020000000002,828.8739999999999,1.59,1.508
