,time,id,x,y,z,velocity,angle of motion,facing angle
58463,1352853424.1339998,9370400,5460,303,1722.0420000000001,1084.567,-1.074,0.0
58476,1352853424.173,9370400,5461,304,1713.985,1089.373,-1.093,1.21
58488,1352853424.207,9370400,5478,269,1711.94,1065.618,-1.0170000000000001,-1.01
58500,1352853424.245,9370400,5492,236,1708.648,1099.503,-1.0759999999999998,-1.107
58512,1352853424.282,9370400,5521,194,1705.974,1170.522,-1.1340000000000001,-1.168
58524,1352853424.318,9370400,5550,136,1701.537,1200.857,-1.1909999999999998,-1.197
58536,1352853424.352,9370400,5571,102,1698.483,1199.451,-1.183,-1.207
58549,1352853424.387,9370400,5601,47,1695.9979999999998,1227.3319999999999,-1.169,-1.192
58562,1352853424.424,9370400,5636,-26,1693.099,1229.087,-1.173,-1.2309999999999999
58575,1352853424.462,9370400,5664,-93,1686.7720000000002,1217.366,-1.217,-1.239
58589,1352853424.497,9370400,5690,-176,1680.239,1258.12,-1.24,-1.274
58603,1352853424.533,9370400,5729,-254,1675.047,1295.655,-1.2429999999999999,-1.2990000000000002
58617,1352853424.569,9370400,5745,-298,1669.4479999999999,1256.585,-1.2429999999999999,-1.295
58631,1352853424.605,9370400,5770,-347,1669.46,1305.858,-1.203,-1.288
58645,1352853424.64,9370400,5796,-384,1669.476,1285.675,-1.139,-1.239
58659,1352853424.676,9370400,5829,-431,1664.965,1375.5420000000001,-1.124,-1.197
58673,1352853424.712,9370400,5870,-489,1664.944,1314.235,-1.1179999999999999,-1.18
58687,1352853424.7519999,9370400,5920,-531,1666.504,1313.0279999999998,-1.0859999999999999,-1.1420000000000001
58701,1352853424.792,9370400,5978,-582,1671.9170000000001,1343.359,-1.0490000000000002,-1.099
58715,1352853424.831,9370400,6004,-628,1690.615,1406.269,-1.061,-1.093
58729,1352853424.8660002,9370400,6041,-686,1688.963,1443.2379999999998,-1.043,-1.0979999999999999
58743,1352853424.904,9370400,6084,-747,1682.101,1469.711,-1.064,-1.1159999999999999
58757,1352853424.94,9370400,6139,-809,1684.65,1472.4470000000001,-1.016,-1.074
58771,1352853424.98,9370400,6189,-854,1695.536,1535.4089999999999,-1.011,-1.013
58785,1352853425.017,9370400,6235,-891,1703.411,1510.616,-0.985,-0.995
58799,1352853425.055,9370400,6269,-942,1695.506,1507.435,-0.9470000000000001,-0.98
58814,1352853425.0939999,9370400,6316,-998,1693.555,1564.503,-0.9890000000000001,-0.982
58829,1352853425.129,9370400,6342,-1079,1751.5279999999998,1691.348,-1.003,-0.988
58844,1352853425.165,9370400,6366,-1143,1806.5929999999998,1689.851,-0.988,-0.9890000000000001
58859,1352853425.202,9370400,6391,-1178,1799.695,1637.182,-0.925,-0.968
58874,1352853425.2419999,9370400,6437,-1261,1803.783,1725.881,-0.894,-0.924
58889,1352853425.28,9370400,6466,-1310,1801.965,1742.351,-0.91,-0.887
58904,1352853425.317,9370400,6498,-1355,1793.501,1719.4389999999999,-0.865,-0.845
58919,1352853425.353,9370400,6526,-1373,1779.961,1651.271,-0.812,-0.815
58934,1352853425.3930001,9370400,6563,-1411,1798.425,1635.9460000000001,-0.862,-0.873
58949,1352853425.429,9370400,6595,-1455,1783.691,1543.862,-0.85,-0.851
58964,1352853425.47,9370400,6638,-1503,1777.3770000000002,1528.3039999999999,-0.838,-0.847
58979,1352853425.5110002,9370400,6675,-1546,1768.754,1491.527,-0.84,-0.8420000000000001
58994,1352853425.551,9370400,6695,-1598,1764.266,1539.592,-0.902,-0.894
59009,1352853425.59,9370400,6743,-1659,1767.405,1615.1589999999999,-0.903,-0.929
59024,1352853425.628,9370400,6782,-1715,1768.162,1619.511,-0.9329999999999999,-0.981
59039,1352853425.663,9370400,6822,-1748,1765.911,1622.191,-0.9670000000000001,-0.973
59054,1352853425.698,9370400,6851,-1781,1762.845,1517.514,-0.981,-0.956
59069,1352853425.738,9370400,6916,-1836,1811.855,1661.957,-0.884,-0.907
59084,1352853425.777,9370400,6969,-1905,1815.858,1745.818,-0.8540000000000001,-0.922
59099,1352853425.813,9370400,7005,-1944,1814.484,1717.5220000000002,-0.897,-0.94
59114,1352853425.851,9370400,7022,-2003,1823.2979999999998,1812.283,-0.878,-0.9259999999999999
59129,1352853425.888,9370400,7031,-2033,1827.047,1652.612,-0.927,-0.929
59144,1352853425.926,9370400,7049,-2064,1818.74,1560.277,-1.01,-0.955
59159,1352853425.965,9370400,7101,-2123,1812.035,1623.628,-1.04,-0.935
59174,1352853426.003,9370400,7174,-2175,1805.486,1688.737,-0.9740000000000001,-0.917
59189,1352853426.04,9370400,7323,-2262,1803.1129999999998,1911.507,-0.7879999999999999,-0.7759999999999999
59204,1352853426.078,9370400,7425,-2298,1800.219,2038.01,-0.6409999999999999,-0.7290000000000001
59219,1352853426.1160002,9370400,7444,-2333,1796.2060000000001,2004.371,-0.664,-0.7190000000000001
59234,1352853426.155,9370400,7488,-2367,1789.776,1984.4720000000002,-0.64,-0.7340000000000001
59249,1352853426.193,9370400,7538,-2418,1784.636,2023.106,-0.657,-0.741
59264,1352853426.23,9370400,7601,-2466,1788.779,2029.0339999999999,-0.66,-0.742
59279,1352853426.273,9370400,7656,-2522,1801.6889999999999,1982.2160000000001,-0.679,-0.711
59294,1352853426.312,9370400,7697,-2551,1809.398,1883.568,-0.643,-0.677
59309,1352853426.35,9370400,7748,-2564,1806.415,1826.251,-0.585,-0.6659999999999999
59324,1352853426.39,9370400,7777,-2567,1802.8670000000002,1697.993,-0.68,-0.6729999999999999
59339,1352853426.428,9370400,7813,-2600,1796.539,1677.005,-0.747,-0.769
59353,1352853426.467,9370400,7851,-2644,1793.215,1639.491,-0.7959999999999999,-0.836
59367,1352853426.505,9370400,7871,-2688,1790.504,1608.7320000000002,-0.865,-0.899
59380,1352853426.544,9370400,7885,-2732,1790.075,1589.068,-0.897,-0.9309999999999999
59393,1352853426.581,9370400,7905,-2789,1788.33,1562.795,-0.945,-0.9390000000000001
59406,1352853426.6160002,9370400,7941,-2829,1782.442,1578.485,-0.97,-0.983
59419,1352853426.652,9370400,7965,-2852,1776.486,1510.144,-0.9690000000000001,-0.987
59433,1352853426.691,9370400,7994,-2891,1773.5720000000001,1451.533,-1.021,-0.996
59447,1352853426.7289999,9370400,8031,-2925,1768.479,1406.089,-1.052,-1.002
59461,1352853426.767,9370400,8062,-2962,1763.9160000000002,1331.098,-1.052,-1.018
59475,1352853426.807,9370400,8084,-2998,1760.776,1242.165,-1.078,-1.067
59489,1352853426.8439999,9370400,8098,-3015,1757.318,1118.162,-1.012,-1.0590000000000002
59503,1352853426.8830001,9370400,8136,-3038,1753.129,1010.684,-0.9590000000000001,-1.0170000000000001
59517,1352853426.921,9370400,8171,-3056,1749.0610000000001,1033.722,-0.8809999999999999,-0.988
59531,1352853426.961,9370400,8209,-3092,1744.839,1084.399,-0.95,-0.98
59545,1352853427.0019999,9370400,8269,-3138,1740.987,1168.325,-0.9690000000000001,-0.978
59559,1352853427.043,9370400,8306,-3183,1738.112,1205.0339999999999,-0.935,-0.9570000000000001
59573,1352853427.079,9370400,8351,-3211,1735.783,1264.643,-0.9520000000000001,-0.9570000000000001
59587,1352853427.1160002,9370400,8399,-3230,1734.181,1290.348,-0.976,-0.955
59601,1352853427.1560001,9370400,8441,-3260,1731.818,1271.247,-0.982,-1.002
59615,1352853427.195,9370400,8463,-3305,1754.203,1312.566,-1.04,-1.014
59628,1352853427.2319999,9370400,8487,-3347,1762.023,1287.68,-1.0290000000000001,-1.047
59641,1352853427.269,9370400,8512,-3397,1766.911,1243.6860000000001,-1.0490000000000002,-1.062
59654,1352853427.309,9370400,8537,-3442,1768.116,1280.1960000000001,-1.102,-1.075
59667,1352853427.345,9370400,8603,-3468,1755.408,1279.5739999999998,-1.063,-1.0759999999999998
59680,1352853427.3830001,9370400,8657,-3510,1745.2160000000001,1317.9170000000001,-1.0290000000000001,-1.044
59693,1352853427.422,9370400,8694,-3559,1738.442,1287.326,-1.036,-1.033
59706,1352853427.46,9370400,8735,-3607,1732.536,1246.9260000000002,-1.0859999999999999,-1.01
59719,1352853427.4980001,9370400,8756,-3640,1721.5839999999998,1232.6680000000001,-1.018,-1.012
59732,1352853427.536,9370400,8786,-3662,1709.191,1187.27,-0.997,-0.961
59745,1352853427.574,9370400,8801,-3688,1702.665,1164.076,-0.987,-0.96
59758,1352853427.61,9370400,8832,-3728,1730.8929999999998,1165.8339999999998,-0.997,-0.945
59771,1352853427.648,9370400,8869,-3765,1730.49,1208.809,-0.981,-0.909
59784,1352853427.687,9370400,8918,-3804,1729.0120000000002,1251.692,-0.905,-0.902
59797,1352853427.723,9370400,8955,-3826,1729.993,1275.518,-0.8170000000000001,-0.85
59810,1352853427.7589998,9370400,9004,-3868,1728.882,1276.639,-0.8009999999999999,-0.8859999999999999
59823,1352853427.802,9370400,9075,-3913,1734.265,1339.1070000000002,-0.8540000000000001,-0.866
59836,1352853427.84,9370400,9116,-3954,1735.047,1338.598,-0.835,-0.83
59849,1352853427.88,9370400,9158,-3996,1737.6660000000002,1483.267,-0.92,-0.853
59862,1352853427.918,9370400,9228,-4046,1732.6170000000002,1669.378,-0.9109999999999999,-0.863
59875,1352853427.957,9370400,9287,-4094,1730.567,1777.1070000000002,-0.8220000000000001,-0.8190000000000001
59888,1352853427.994,9370400,9367,-4157,1752.566,1888.871,-0.7609999999999999,-0.8029999999999999
59901,1352853428.033,9370400,9382,-4147,1770.274,1576.219,-0.78,-0.8390000000000001
59914,1352853428.072,9370400,9407,-4170,1772.795,1481.986,-0.8,-0.8220000000000001
59927,1352853428.11,9370400,9444,-4197,1773.487,1390.9,-0.799,-0.84
59940,1352853428.148,9370400,9574,-4293,1774.1860000000001,1551.7520000000002,-0.782,-0.828
59953,1352853428.187,9370400,9623,-4346,1767.644,1604.5179999999998,-0.863,-0.867
59966,1352853428.225,9370400,9671,-4406,1770.193,1599.5629999999999,-0.877,-0.922
59980,1352853428.264,9370400,9714,-4450,1770.9479999999999,1660.592,-0.925,-0.951
59994,1352853428.305,9370400,9747,-4480,1763.11,1686.2479999999998,-0.946,-0.9390000000000001
60008,1352853428.342,9370400,9766,-4502,1755.1660000000002,1588.526,-1.0170000000000001,-0.9420000000000001
60022,1352853428.378,9370400,9783,-4530,1749.971,1548.636,-1.023,-0.945
60036,1352853428.417,9370400,9791,-4555,1745.6370000000002,1490.73,-0.99,-0.9620000000000001
60050,1352853428.456,9370400,9870,-4613,1743.636,1631.066,-0.934,-0.93
60064,1352853428.494,9370400,9927,-4656,1741.3210000000001,1672.9029999999998,-0.9079999999999999,-0.884
60078,1352853428.534,9370400,9969,-4694,1739.7820000000002,1669.7079999999999,-0.905,-0.889
60092,1352853428.575,9370400,10011,-4737,1735.533,1620.819,-0.85,-0.897
60106,1352853428.612,9370400,10044,-4760,1731.145,1518.8220000000001,-0.9109999999999999,-0.895
60120,1352853428.65,9370400,10071,-4785,1724.014,1463.864,-0.903,-0.914
60134,1352853428.688,9370400,10100,-4836,1724.1529999999998,1383.505,-0.9359999999999999,-0.925
60148,1352853428.726,9370400,10134,-4884,1724.1529999999998,1400.402,-0.9420000000000001,-0.943
60162,1352853428.763,9370400,10163,-4923,1724.1529999999998,1323.316,-0.9390000000000001,-0.9590000000000001
60176,1352853428.801,9370400,10183,-4904,1719.819,1227.035,-0.816,-0.885
60190,1352853428.839,9370400,10245,-4959,1712.047,1310.278,-0.858,-0.9079999999999999
60204,1352853428.8760002,9370400,10269,-4993,1708.605,1242.16,-0.867,-0.917
60218,1352853428.913,9370400,10327,-5013,1702.229,1307.613,-0.773,-0.895
60232,1352853428.953,9370400,10363,-5050,1693.0620000000001,1279.742,-0.775,-0.898
60246,1352853428.9910002,9370400,10398,-5074,1683.1470000000002,1254.753,-0.777,-0.861
60260,1352853429.028,9370400,10424,-5124,1672.35,1218.364,-0.807,-0.8690000000000001
60274,1352853429.065,9370400,10443,-5148,1662.749,1152.777,-0.816,-0.846
60288,1352853429.1039999,9370400,10480,-5172,1680.55,1108.056,-0.7879999999999999,-0.812
60302,1352853429.142,9370400,10546,-5183,1691.6270000000002,1196.063,-0.7609999999999999,-0.772
60316,1352853429.181,9370400,10602,-5200,1691.394,1253.51,-0.779,-0.772
60330,1352853429.222,9370400,10648,-5227,1690.385,1297.485,-0.754,-0.769
60344,1352853429.2610002,9370400,10698,-5265,1687.155,1260.285,-0.7659999999999999,-0.741
60358,1352853429.304,9370400,10692,-5322,1682.047,1265.68,-0.889,-0.821
60372,1352853429.342,9370400,10742,-5390,1678.0720000000001,1341.575,-0.948,-0.893
60386,1352853429.379,9370400,10782,-5434,1670.3339999999998,1336.943,-0.898,-0.907
60400,1352853429.417,9370400,10827,-5473,1666.289,1325.6129999999998,-0.84,-0.8959999999999999
60414,1352853429.455,9370400,10866,-5509,1662.005,1351.5320000000002,-0.915,-0.932
60428,1352853429.494,9370400,10924,-5557,1660.761,1434.328,-0.88,-0.9129999999999999
60442,1352853429.533,9370400,10967,-5593,1659.753,1368.625,-0.879,-0.875
60456,1352853429.571,9370400,11016,-5637,1692.6229999999998,1353.001,-0.887,-0.853
60470,1352853429.608,9370400,11060,-5680,1703.704,1361.5339999999999,-0.865,-0.815
60484,1352853429.648,9370400,11092,-5726,1696.026,1405.4520000000002,-0.85,-0.847
60498,1352853429.685,9370400,11116,-5772,1692.793,1385.799,-0.914,-0.9
60512,1352853429.722,9370400,11150,-5813,1687.685,1398.825,-0.9520000000000001,-0.951
60526,1352853429.7610002,9370400,11187,-5856,1675.6670000000001,1422.838,-0.9690000000000001,-0.998
60540,1352853429.797,9370400,11216,-5894,1664.664,1439.185,-0.932,-1.024
60554,1352853429.836,9370400,11259,-5950,1662.567,1501.509,-0.987,-1.032
60568,1352853429.8739998,9370400,11294,-6001,1662.555,1533.6970000000001,-0.976,-0.9940000000000001
60582,1352853429.912,9370400,11358,-6054,1668.764,1614.125,-0.96,-0.934
60596,1352853429.951,9370400,11421,-6090,1669.126,1616.656,-0.8440000000000001,-0.895
60610,1352853429.987,9370400,11473,-6124,1669.549,1594.161,-0.852,-0.88
60624,1352853430.027,9370400,11502,-6200,1664.9460000000001,1622.392,-0.898,-0.915
60638,1352853430.07,9370400,11530,-6244,1660.895,1511.766,-0.943,-0.9640000000000001
60652,1352853430.108,9370400,11546,-6269,1656.766,1453.878,-0.937,-0.987
60666,1352853430.1460001,9370400,11602,-6321,1655.764,1453.1660000000002,-0.8220000000000001,-0.905
60680,1352853430.184,9370400,11647,-6378,1654.9779999999998,1473.9520000000002,-0.8059999999999999,-0.8370000000000001
60694,1352853430.224,9370400,11679,-6413,1648.082,1430.057,-0.7929999999999999,-0.8440000000000001
60708,1352853430.264,9370400,11755,-6446,1644.695,1476.217,-0.6990000000000001,-0.716
60722,1352853430.303,9370400,11813,-6467,1640.5839999999998,1477.7479999999998,-0.602,-0.574
60736,1352853430.341,9370400,11873,-6509,1639.219,1517.9160000000002,-0.619,-0.539
60750,1352853430.381,9370400,11911,-6544,1637.4229999999998,1509.499,-0.591,-0.506
60764,1352853430.421,9370400,11957,-6580,1637.4,1438.45,-0.603,-0.5770000000000001
60778,1352853430.461,9370400,11984,-6615,1637.371,1409.241,-0.634,-0.623
60792,1352853430.5019999,9370400,12167,-6762,1717.8770000000002,1736.1729999999998,-0.7290000000000001,-0.6709999999999999
60806,1352853430.543,9370400,12207,-6799,1709.797,1753.652,-0.7490000000000001,-0.64
60820,1352853430.5839999,9370400,12237,-6829,1700.195,1692.361,-0.72,-0.6759999999999999
60834,1352853430.6230001,9370400,12271,-6848,1689.1029999999998,1671.473,-0.655,-0.669
60848,1352853430.661,9370400,12281,-6882,1679.533,1621.08,-0.764,-0.67
60862,1352853430.699,9370400,12301,-6928,1670.675,1548.0629999999999,-0.826,-0.66
60876,1352853430.737,9370400,12338,-6978,1671.1270000000002,1587.046,-0.823,-0.6759999999999999
60891,1352853430.775,9370400,12374,-7023,1671.1270000000002,1541.339,-0.865,-0.6759999999999999
60906,1352853430.814,9370400,12412,-7067,1671.1270000000002,1497.764,-0.856,-0.6809999999999999
60921,1352853430.8539999,9370400,12449,-7116,1671.1270000000002,1391.076,-0.9229999999999999,-0.711
60936,1352853430.89,9370400,12536,-7143,1689.0810000000001,1541.861,-0.679,-0.6920000000000001
60951,1352853430.925,9370400,12495,-7195,1681.0320000000002,1442.602,-0.8190000000000001,-0.86
60966,1352853430.963,9370400,12540,-7215,1678.654,1386.749,-0.813,-0.8190000000000001
60981,1352853431.003,9370400,12608,-7210,1678.994,1395.3020000000001,-0.674,-0.6759999999999999
60996,1352853431.038,9370400,12653,-7184,1677.868,1377.17,-0.568,-0.544
61011,1352853431.076,9370400,12685,-7238,1672.644,1312.7520000000002,-0.754,-0.662
61026,1352853431.112,9370400,12703,-7289,1665.497,1198.243,-0.787,-0.7490000000000001
61041,1352853431.149,9370400,12888,-7365,1754.8020000000001,1441.148,-0.6829999999999999,-0.736
61056,1352853431.185,9370400,12949,-7402,1856.37,1480.6960000000001,-0.688,-0.732
61071,1352853431.222,9370400,12982,-7437,1848.1789999999999,1439.859,-0.69,-0.77
61086,1352853431.2580001,9370400,12968,-7449,1828.749,1282.491,-0.727,-0.752
61101,1352853431.296,9370400,12970,-7464,1815.717,1110.235,-0.7929999999999999,-0.727
61116,1352853431.33,9370400,13017,-7512,1815.3270000000002,1211.6019999999999,-0.6990000000000001,-0.731
61131,1352853431.3669999,9370400,13070,-7550,1811.124,1332.104,-0.6940000000000001,-0.696
61146,1352853431.403,9370400,13111,-7582,1803.9260000000002,1425.4360000000001,-0.69,-0.665
61161,1352853431.441,9370400,13155,-7609,1800.079,1490.07,-0.634,-0.652
61176,1352853431.477,9370400,13206,-7641,1798.558,1550.634,-0.648,-0.653
61191,1352853431.513,9370400,13234,-7656,1797.307,1476.78,-0.604,-0.635
61206,1352853431.551,9370400,13265,-7677,1794.0410000000002,1374.5,-0.6729999999999999,-0.66
61221,1352853431.593,9370400,13332,-7740,1791.152,1471.7379999999998,-0.6890000000000001,-0.639
61236,1352853431.629,9370400,13376,-7774,1788.381,1485.486,-0.691,-0.62
61251,1352853431.664,9370400,13434,-7819,1810.599,1516.5,-0.629,-0.584
61266,1352853431.705,9370400,13467,-7849,1824.9660000000001,1434.4,-0.64,-0.578
61281,1352853431.7419999,9370400,13489,-7872,1817.922,1386.0810000000001,-0.6679999999999999,-0.563
61296,1352853431.777,9370400,13504,-7899,1810.99,1271.049,-0.672,-0.586
61311,1352853431.814,9370400,13515,-7930,1841.5439999999999,1183.317,-0.698,-0.6459999999999999
61326,1352853431.853,9370400,13538,-7953,1853.432,1138.806,-0.6859999999999999,-0.657
61341,1352853431.89,9370400,13576,-7979,1849.751,1135.671,-0.628,-0.599
61356,1352853431.925,9370400,13635,-8037,1845.55,1309.348,-0.612,-0.599
61371,1352853431.96,9370400,13682,-8082,1840.2379999999998,1382.935,-0.626,-0.578
61386,1352853431.9980001,9370400,13741,-8147,1839.094,1487.639,-0.626,-0.596
61401,1352853432.036,9370400,13788,-8190,1837.598,1538.2620000000002,-0.5820000000000001,-0.598
61416,1352853432.072,9370400,13806,-8233,1828.8729999999998,1483.164,-0.669,-0.591
61430,1352853432.11,9370400,13820,-8244,1818.474,1439.744,-0.691,-0.581
61444,1352853432.148,9370400,13866,-8269,1807.139,1433.414,-0.642,-0.568
61458,1352853432.185,9370400,13908,-8283,1795.872,1347.76,-0.598,-0.563
61472,1352853432.223,9370400,13952,-8312,1802.682,1310.721,-0.618,-0.578
61486,1352853432.2580001,9370400,14001,-8338,1814.8470000000002,1255.3519999999999,-0.609,-0.57
61500,1352853432.297,9370400,14047,-8367,1820.51,1253.7269999999999,-0.5920000000000001,-0.547
61514,1352853432.338,9370400,14072,-8396,1818.5829999999999,1240.865,-0.605,-0.5429999999999999
61528,1352853432.375,9370400,14096,-8418,1816.605,1235.823,-0.5920000000000001,-0.5710000000000001
61542,1352853432.412,9370400,14136,-8456,1813.017,1247.225,-0.568,-0.5489999999999999
61556,1352853432.449,9370400,14179,-8472,1809.4389999999999,1237.718,-0.512,-0.513
61570,1352853432.487,9370400,14249,-8511,1809.4460000000001,1252.583,-0.47200000000000003,-0.493
61584,1352853432.526,9370400,14306,-8555,1806.1229999999998,1263.288,-0.47700000000000004,-0.488
61598,1352853432.565,9370400,14359,-8591,1799.264,1254.6680000000001,-0.46,-0.48700000000000004
61612,1352853432.6,9370400,14389,-8630,1792.795,1221.802,-0.523,-0.514
61626,1352853432.638,9370400,14420,-8655,1786.37,1204.61,-0.519,-0.5
61640,1352853432.677,9370400,14466,-8685,1786.414,1156.851,-0.5539999999999999,-0.484
61654,1352853432.715,9370400,14497,-8707,1786.496,1216.757,-0.596,-0.525
61668,1352853432.753,9370400,14515,-8785,1782.523,1333.775,-0.7,-0.645
61682,1352853432.792,9370400,14548,-8824,1778.535,1367.62,-0.6859999999999999,-0.6940000000000001
61696,1352853432.827,9370400,14568,-8882,1776.851,1499.366,-0.802,-0.723
61710,1352853432.8639998,9370400,14613,-8967,1776.695,1692.112,-0.823,-0.75
61725,1352853432.9,9370400,14648,-9056,1776.799,1813.8020000000001,-0.885,-0.7609999999999999
61740,1352853432.936,9370400,14651,-9054,1771.568,1647.3039999999999,-0.7879999999999999,-0.755
61755,1352853432.971,9370400,14651,-9039,1764.727,1536.5629999999999,-0.73,-0.718
61770,1352853433.007,9370400,14710,-9125,1758.0279999999998,1669.4920000000002,-0.813,-0.7809999999999999
