,time,id,x,y,z,velocity,angle of motion,facing angle
63915,1352853439.162,9371900,45359,-18327,1394.365,1131.69,-2.667,0.0
63928,1352853439.2,9371900,45357,-18325,1394.365,1120.752,-2.65,0.977
63941,1352853439.237,9371900,45334,-18341,1385.239,1108.233,-2.6210000000000004,-2.343
63954,1352853439.275,9371900,45300,-18362,1385.219,1127.524,-2.6519999999999997,-2.457
63967,1352853439.311,9371900,45267,-18379,1385.219,1104.016,-2.653,-2.5069999999999997
63980,1352853439.346,9371900,45251,-18426,1380.0829999999999,1112.994,-2.4090000000000003,-2.344
63993,1352853439.3830001,9371900,45240,-18474,1374.1470000000002,1063.122,-2.181,-2.19
64005,1352853439.421,9371900,45182,-18483,1372.615,1045.086,-2.379,-2.316
64017,1352853439.4589999,9371900,45114,-18462,1370.2679999999998,1050.149,-2.6180000000000003,-2.523
64028,1352853439.496,9371900,45154,-18794,1394.425,1333.0510000000002,-1.851,-1.867
64039,1352853439.533,9371900,45137,-18822,1392.356,1314.5410000000002,-1.854,-1.847
64050,1352853439.57,9371900,45120,-18851,1390.3210000000001,1310.04,-1.89,-1.8780000000000001
64061,1352853439.606,9371900,45094,-18887,1388.111,1290.603,-1.939,-1.8969999999999998
64072,1352853439.6460001,9371900,45066,-18913,1385.6589999999999,1187.008,-1.975,-1.943
64083,1352853439.685,9371900,45025,-18931,1392.999,1167.046,-2.04,-1.986
64094,1352853439.72,9371900,44990,-18945,1403.8139999999999,1115.923,-2.104,-2.004
64105,1352853439.756,9371900,44962,-18964,1400.819,1095.106,-2.12,-2.015
64116,1352853439.7910001,9371900,44943,-18985,1395.306,1044.524,-2.1180000000000003,-2.003
64127,1352853439.826,9371900,44879,-18993,1412.6729999999998,1037.981,-2.2969999999999997,-2.106
64138,1352853439.862,9371900,44848,-19019,1412.621,971.432,-2.338,-2.103
64149,1352853439.898,9371900,44823,-19047,1412.621,951.666,-2.312,-2.133
64160,1352853439.934,9371900,44799,-19073,1412.621,959.584,-2.29,-2.14
64171,1352853439.97,9371900,44691,-18957,1419.67,927.529,-3.049,-1.7380000000000002
64182,1352853440.0080001,9371900,44647,-18950,1419.297,902.868,-2.9130000000000003,-1.724
64193,1352853440.046,9371900,44596,-18960,1418.057,866.52,-2.827,-1.732
64204,1352853440.082,9371900,44574,-18977,1418.136,808.789,-2.773,-1.8630000000000002
64215,1352853440.118,9371900,44556,-18986,1418.136,790.832,-2.737,-1.869
64226,1352853440.1560001,9371900,44528,-19000,1418.136,717.556,-2.7289999999999996,-1.923
64237,1352853440.193,9371900,44506,-19007,1418.136,660.113,-2.659,-2.052
64248,1352853440.23,9371900,44435,-18959,1416.319,824.4689999999999,-2.858,-1.926
64260,1352853440.264,9371900,44395,-18974,1412.8370000000002,875.0160000000001,-2.699,-1.995
64272,1352853440.3,9371900,44364,-18981,1408.424,903.075,-2.52,-2.0340000000000003
64284,1352853440.336,9371900,44336,-18995,1408.4720000000002,860.66,-2.557,-2.048
64296,1352853440.3760002,9371900,44312,-19011,1408.4720000000002,803.398,-2.548,-2.142
64308,1352853440.4160001,9371900,44290,-19030,1408.4720000000002,755.814,-2.461,-2.186
64320,1352853440.455,9371900,44266,-19048,1408.4720000000002,686.953,-2.506,-2.267
64332,1352853440.49,9371900,44253,-19059,1408.4720000000002,654.015,-2.397,-2.227
64344,1352853440.527,9371900,44235,-19076,1408.4720000000002,608.036,-2.404,-2.263
64356,1352853440.565,9371900,44217,-19093,1408.4720000000002,615.942,-2.421,-2.2319999999999998
64368,1352853440.601,9371900,44040,-19052,1408.0510000000002,861.87,-2.9219999999999997,-2.012
64380,1352853440.638,9371900,44005,-19037,1407.977,797.829,-2.8310000000000004,-2.097
64392,1352853440.676,9371900,44016,-19004,1407.5439999999999,729.291,-2.679,-2.261
64404,1352853440.714,9371900,43972,-19017,1407.754,712.72,-2.511,-2.29
64416,1352853440.7510002,9371900,43947,-19023,1407.888,733.574,-2.445,-2.327
64428,1352853440.787,9371900,43923,-19029,1407.991,739.9839999999999,-2.425,-2.394
64440,1352853440.825,9371900,43921,-19002,1408.0629999999999,662.54,-2.476,-2.424
64452,1352853440.8639998,9371900,43906,-18991,1408.069,650.549,-2.49,-2.475
64464,1352853440.901,9371900,43834,-18943,1408.069,796.682,-2.63,-2.492
64475,1352853440.939,9371900,43766,-18938,1408.069,782.692,-2.6860000000000004,-2.509
64486,1352853440.976,9371900,43726,-18927,1408.069,768.0360000000001,-2.8139999999999996,-2.642
64497,1352853441.014,9371900,43688,-18938,1408.069,749.377,-2.787,-2.716
64508,1352853441.05,9371900,43648,-18913,1408.069,744.36,-2.9739999999999998,-2.89
64519,1352853441.088,9371900,43595,-18871,1408.069,849.836,3.109,3.1289999999999996
64530,1352853441.1230001,9371900,43419,-18790,1407.006,1139.525,2.747,2.4019999999999997
64541,1352853441.158,9371900,43355,-18743,1406.02,1178.82,2.6919999999999997,2.432
64552,1352853441.195,9371900,43294,-18690,1405.2060000000001,1144.688,2.625,2.46
64563,1352853441.233,9371900,43258,-18654,1405.1370000000002,1116.825,2.531,2.449
64574,1352853441.269,9371900,43210,-18622,1404.396,1153.4,2.491,2.465
64585,1352853441.305,9371900,43167,-18584,1402.5279999999998,1120.0610000000001,2.467,2.458
64596,1352853441.34,9371900,43137,-18545,1400.375,1125.671,2.384,2.384
64607,1352853441.375,9371900,43070,-18502,1399.864,1196.903,2.436,2.479
64618,1352853441.411,9371900,43019,-18472,1399.267,1160.806,2.465,2.589
64629,1352853441.445,9371900,42958,-18446,1400.161,1199.1680000000001,2.5269999999999997,2.701
64640,1352853441.4819999,9371900,42906,-18430,1399.195,1245.003,2.615,2.77
64651,1352853441.5210001,9371900,42864,-18409,1397.267,1205.014,2.647,2.7310000000000003
64663,1352853441.555,9371900,42815,-18392,1397.126,1277.593,2.675,2.741
64675,1352853441.592,9371900,42737,-18378,1453.0120000000002,1437.2,2.7060000000000004,2.7569999999999997
64687,1352853441.628,9371900,42670,-18375,1479.869,1447.63,2.8310000000000004,2.8310000000000004
64699,1352853441.664,9371900,42645,-18357,1471.795,1437.829,2.7769999999999997,2.821
64711,1352853441.7,9371900,42561,-18354,1476.402,1518.171,2.825,2.862
64723,1352853441.734,9371900,42529,-18352,1474.4560000000001,1494.3670000000002,2.783,2.8819999999999997
64735,1352853441.77,9371900,42509,-18346,1467.997,1429.234,2.7689999999999997,2.7889999999999997
64747,1352853441.81,9371900,42448,-18342,1467.89,1491.931,2.801,2.804
64759,1352853441.846,9371900,42406,-18386,1460.62,1423.241,2.977,2.927
64771,1352853441.882,9371900,42378,-18359,1456.033,1474.349,2.827,2.813
64783,1352853441.9160001,9371900,42326,-18382,1463.161,1512.049,2.964,2.9360000000000004
64795,1352853441.952,9371900,42289,-18411,1458.404,1528.345,2.97,3.0039999999999996
64807,1352853441.9889998,9371900,42251,-18381,1449.5439999999999,1551.444,2.932,2.9739999999999998
64819,1352853442.023,9371900,42176,-18395,1474.5179999999998,1436.717,3.035,3.06
64831,1352853442.059,9371900,42122,-18445,1467.509,1486.886,-3.1010000000000004,-3.1210000000000004
64843,1352853442.096,9371900,42084,-18435,1457.793,1462.9470000000001,-3.1210000000000004,-3.1210000000000004
64855,1352853442.1330001,9371900,42050,-18396,1450.0410000000002,1494.592,3.116,3.09
64867,1352853442.171,9371900,41979,-18402,1445.885,1495.4229999999998,3.136,3.1260000000000003
64879,1352853442.206,9371900,41966,-18451,1437.253,1191.12,-2.9739999999999998,-2.924
64892,1352853442.2419999,9371900,41903,-18445,1438.807,1232.0639999999999,-3.013,-3.029
64905,1352853442.278,9371900,41894,-18394,1434.546,1164.01,-3.114,-3.073
64918,1352853442.315,9371900,41852,-18320,1433.0410000000002,1176.737,2.984,3.0610000000000004
64931,1352853442.353,9371900,41797,-18378,1430.1029999999998,1147.628,3.108,-3.137
64944,1352853442.389,9371900,41733,-18385,1435.1370000000002,1175.8239999999998,-3.136,-3.125
64957,1352853442.425,9371900,41685,-18319,1431.8210000000001,1232.797,3.0069999999999997,3.036
64970,1352853442.462,9371900,41667,-18363,1425.585,1203.496,3.082,3.113
64983,1352853442.4989998,9371900,41650,-18364,1418.47,1176.901,3.122,3.105
64996,1352853442.544,9371900,41591,-18334,1410.521,1152.361,3.0669999999999997,3.06
65009,1352853442.58,9371900,41575,-18383,1409.8,1021.1030000000001,-3.073,-3.054
65022,1352853442.618,9371900,41520,-18345,1404.839,1012.3689999999999,3.049,3.141
65035,1352853442.654,9371900,41452,-18295,1398.0729999999999,1019.253,2.955,3.049
65048,1352853442.691,9371900,41420,-18258,1393.8529999999998,1036.2830000000001,2.83,2.9360000000000004
65061,1352853442.73,9371900,41385,-18248,1393.8729999999998,1016.155,2.8569999999999998,2.9619999999999997
65074,1352853442.765,9371900,41335,-18226,1436.9589999999998,1068.13,2.8569999999999998,2.885
65087,1352853442.802,9371900,41296,-18221,1435.276,1135.379,2.844,2.823
65100,1352853442.84,9371900,41246,-18216,1428.9879999999998,1213.729,2.752,2.779
65113,1352853442.879,9371900,41199,-18198,1420.221,1223.079,2.661,2.73
65126,1352853442.917,9371900,41154,-18181,1409.991,1240.9589999999998,2.6830000000000003,2.697
65139,1352853442.951,9371900,41128,-18164,1401.32,1175.103,2.661,2.688
65152,1352853442.984,9371900,41075,-18145,1397.6870000000001,1170.526,2.6239999999999997,2.657
65165,1352853443.0210001,9371900,41003,-18126,1392.1529999999998,1301.776,2.665,2.7110000000000003
65178,1352853443.058,9371900,40975,-18116,1387.132,1261.484,2.6210000000000004,2.655
65191,1352853443.093,9371900,40931,-18107,1382.39,1289.701,2.634,2.682
65204,1352853443.132,9371900,40901,-18093,1378.344,1198.458,2.6,2.6830000000000003
65217,1352853443.167,9371900,40853,-18078,1375.221,1192.82,2.665,2.725
65230,1352853443.204,9371900,40817,-18059,1375.3210000000001,1149.983,2.6630000000000003,2.77
65243,1352853443.2419999,9371900,40726,-18047,1428.797,1270.464,2.741,2.725
65256,1352853443.278,9371900,40662,-18039,1448.675,1370.4,2.821,2.823
65269,1352853443.316,9371900,40600,-18019,1459.3370000000002,1531.362,2.762,2.735
65282,1352853443.353,9371900,40554,-18020,1458.111,1532.275,2.7960000000000003,2.763
65295,1352853443.392,9371900,40507,-18023,1454.274,1549.525,2.7260000000000004,2.739
65308,1352853443.43,9371900,40467,-18020,1449.435,1489.711,2.778,2.786
65321,1352853443.47,9371900,40406,-18007,1446.8020000000001,1531.911,2.8139999999999996,2.8289999999999997
65334,1352853443.5110002,9371900,40342,-18013,1443.404,1540.775,2.9389999999999996,2.93
65347,1352853443.551,9371900,40300,-18024,1438.8970000000002,1452.366,2.9619999999999997,2.972
65360,1352853443.589,9371900,40229,-18028,1432.332,1514.36,3.049,2.987
65373,1352853443.6239998,9371900,40215,-18033,1427.819,1382.851,3.028,3.093
65386,1352853443.659,9371900,40169,-18060,1425.013,1305.6580000000001,-3.097,-3.014
65399,1352853443.697,9371900,40124,-18056,1419.41,1234.471,3.123,-3.016
65412,1352853443.733,9371900,40084,-18086,1416.7979999999998,1215.78,-3.082,-2.9589999999999996
65425,1352853443.769,9371900,40046,-18103,1413.858,1257.632,-3.0260000000000002,-2.96
65438,1352853443.807,9371900,40005,-18122,1411.4270000000001,1263.769,-2.9539999999999997,-2.8989999999999996
65451,1352853443.843,9371900,39950,-18120,1408.749,1257.414,-3.0180000000000002,-2.952
65464,1352853443.88,9371900,39908,-18111,1404.026,1250.275,-3.115,-3.043
65478,1352853443.917,9371900,39841,-18085,1400.379,1343.1670000000001,3.135,-3.111
65493,1352853443.954,9371900,39771,-18068,1397.255,1371.0770000000002,3.052,3.1239999999999997
65508,1352853443.995,9371900,39691,-18057,1428.225,1391.529,3.072,3.116
65523,1352853444.034,9371900,39631,-18046,1428.984,1374.6429999999998,3.057,3.073
65538,1352853444.07,9371900,39586,-18044,1471.8829999999998,1458.765,3.065,3.05
65553,1352853444.106,9371900,39537,-18052,1484.5810000000001,1440.8220000000001,3.134,3.13
65568,1352853444.141,9371900,39496,-18070,1505.263,1413.0179999999998,-3.0239999999999996,-3.0469999999999997
65583,1352853444.179,9371900,39438,-18087,1503.5910000000001,1467.1529999999998,-2.991,-3.015
65598,1352853444.217,9371900,39380,-18090,1503.99,1439.235,-2.987,-3.0
65613,1352853444.2510002,9371900,39350,-18075,1499.703,1356.866,-2.957,-2.969
65628,1352853444.288,9371900,39296,-18096,1494.227,1255.931,-2.87,-2.904
65643,1352853444.326,9371900,39251,-18121,1486.484,1189.339,-2.806,-2.9139999999999997
65658,1352853444.365,9371900,39214,-18131,1483.8729999999998,1101.88,-2.801,-2.9219999999999997
65673,1352853444.403,9371900,39173,-18148,1481.182,1073.9589999999998,-2.8710000000000004,-2.947
65688,1352853444.439,9371900,39143,-18154,1479.3470000000002,981.182,-2.87,-2.946
65703,1352853444.475,9371900,39102,-18146,1476.838,938.83,-2.9189999999999996,-2.9760000000000004
65718,1352853444.513,9371900,38803,-17878,1482.91,1603.006,2.9139999999999997,3.015
65733,1352853444.55,9371900,38703,-17808,1484.418,1705.267,2.77,2.912
65748,1352853444.587,9371900,38639,-17787,1484.494,1679.445,2.719,2.821
65763,1352853444.6239998,9371900,38570,-17771,1485.7120000000002,1732.977,2.7,2.803
65778,1352853444.661,9371900,38514,-17746,1489.1229999999998,1728.3770000000002,2.673,2.7460000000000004
65793,1352853444.701,9371900,38420,-17733,1489.479,1753.9479999999999,2.7119999999999997,2.8
65808,1352853444.7389998,9371900,38331,-17726,1489.3139999999999,1760.136,2.812,2.8789999999999996
65823,1352853444.777,9371900,38300,-17766,1492.56,1720.85,2.997,3.0060000000000002
65838,1352853444.814,9371900,38280,-17831,1495.997,1554.881,-3.1060000000000003,-3.1189999999999998
65853,1352853444.85,9371900,38271,-17938,1500.5,1492.1670000000001,-2.945,-2.988
65868,1352853444.888,9371900,38243,-18000,1501.379,1489.0870000000002,-2.891,-2.95
65883,1352853444.926,9371900,38206,-18028,1501.424,1553.461,-2.952,-2.9539999999999997
65898,1352853444.962,9371900,38170,-18026,1504.662,1528.567,-3.016,-2.997
65913,1352853445.0,9371900,38187,-18005,1509.38,1469.908,3.142,-3.14
65927,1352853445.036,9371900,38188,-17985,1527.3139999999999,1510.5770000000002,2.9730000000000003,3.0239999999999996
65941,1352853445.073,9371900,38140,-17955,1532.994,1538.265,2.94,2.9939999999999998
65955,1352853445.108,9371900,38119,-17943,1543.069,1495.8139999999999,2.9,2.947
65969,1352853445.1460001,9371900,38080,-17917,1546.192,1554.675,2.8110000000000004,2.858
65983,1352853445.181,9371900,38038,-17920,1552.316,1502.065,2.7889999999999997,2.8339999999999996
65997,1352853445.218,9371900,38008,-17936,1554.015,1572.352,2.799,2.863
66011,1352853445.255,9371900,37967,-17921,1553.746,1577.2779999999998,2.83,2.8569999999999998
66025,1352853445.2910001,9371900,37919,-17891,1552.9389999999999,1664.889,2.767,2.826
66039,1352853445.327,9371900,37866,-17894,1552.25,1596.12,2.8710000000000004,2.855
66053,1352853445.362,9371900,37810,-17894,1552.2179999999998,1621.668,2.89,2.8810000000000002
66067,1352853445.4,9371900,37737,-17901,1552.1889999999999,1637.741,2.927,2.8819999999999997
66081,1352853445.442,9371900,37650,-17912,1552.1629999999998,1660.1370000000002,3.009,2.9739999999999998
66095,1352853445.4789999,9371900,37573,-17928,1552.154,1657.52,3.04,3.0469999999999997
66109,1352853445.515,9371900,37517,-17924,1552.106,1597.431,3.0810000000000004,3.108
66123,1352853445.55,9371900,37457,-17928,1552.078,1640.235,3.0810000000000004,3.116
66137,1352853445.587,9371900,37392,-17937,1552.089,1640.737,3.112,3.113
66151,1352853445.622,9371900,37332,-17951,1552.089,1699.7520000000002,-3.068,-3.14
66165,1352853445.659,9371900,37263,-17965,1552.112,1690.487,-3.1060000000000003,3.134
66179,1352853445.695,9371900,37225,-17962,1552.099,1660.15,-3.1,-3.1260000000000003
66193,1352853445.731,9371900,37201,-17928,1546.7060000000001,1587.04,-3.122,-3.1210000000000004
66207,1352853445.769,9371900,37178,-17929,1541.16,1408.816,-3.052,-3.097
66221,1352853445.804,9371900,37150,-17877,1535.6779999999999,1249.222,3.063,3.0580000000000003
66236,1352853445.84,9371900,37122,-17850,1529.787,1142.268,2.952,3.0410000000000004
66251,1352853445.878,9371900,37030,-17886,1525.274,1231.607,-3.1180000000000003,-3.0060000000000002
66266,1352853445.912,9371900,37006,-17849,1513.558,1177.0919999999999,2.977,3.089
66281,1352853445.949,9371900,36979,-17817,1500.355,1128.377,2.787,2.895
66296,1352853445.987,9371900,36932,-17805,1500.276,1115.833,2.766,2.931
66311,1352853446.022,9371900,36895,-17790,1500.276,1117.567,2.818,2.964
66326,1352853446.058,9371900,36789,-17776,1496.979,1323.024,2.855,2.983
66341,1352853446.095,9371900,36702,-17776,1493.015,1428.1879999999999,2.952,2.971
66356,1352853446.1339998,9371900,36607,-17784,1488.858,1429.852,2.977,3.054
66371,1352853446.17,9371900,36549,-17777,1486.264,1419.306,2.9760000000000004,3.0439999999999996
66386,1352853446.207,9371900,36512,-17764,1495.151,1397.02,2.97,3.0
66402,1352853446.243,9371900,36492,-17739,1504.914,1275.903,2.93,2.971
66418,1352853446.28,9371900,36454,-17728,1502.365,1278.979,2.8810000000000002,3.012
66434,1352853446.317,9371900,36400,-17727,1516.078,1356.859,2.906,3.01
66450,1352853446.352,9371900,36350,-17707,1522.253,1410.027,2.883,3.017
66466,1352853446.389,9371900,36323,-17718,1569.715,1372.7679999999998,2.955,3.03
66482,1352853446.426,9371900,36284,-17727,1600.9360000000001,1312.001,2.9810000000000003,3.0860000000000003
66498,1352853446.462,9371900,36208,-17758,1615.1989999999998,1321.098,3.1,-3.097
66514,1352853446.497,9371900,36149,-17773,1620.02,1358.114,-3.105,-3.117
66530,1352853446.532,9371900,36064,-17780,1609.0729999999999,1452.04,-3.054,-3.0780000000000003
66546,1352853446.567,9371900,36004,-17773,1602.645,1498.26,-3.06,-3.092
66562,1352853446.6039999,9371900,35924,-17759,1594.2179999999998,1666.771,-3.097,-3.127
66578,1352853446.642,9371900,35827,-17766,1578.537,1870.754,-3.0460000000000003,-3.1239999999999997
66594,1352853446.681,9371900,35772,-17767,1568.566,1830.152,-3.1069999999999998,-3.136
66610,1352853446.7189999,9371900,35714,-17755,1560.318,1690.884,-3.122,3.097
66626,1352853446.7589998,9371900,35667,-17737,1551.865,1610.4460000000001,3.117,3.077
66642,1352853446.797,9371900,35651,-17720,1543.7120000000002,1517.6860000000001,2.9389999999999996,2.9360000000000004
66658,1352853446.837,9371900,35631,-17696,1536.215,1435.557,2.84,2.847
66674,1352853446.879,9371900,35637,-17636,1532.0910000000001,1369.902,2.714,2.7430000000000003
66690,1352853446.9160001,9371900,35565,-17622,1552.517,1370.898,2.801,2.78
66706,1352853446.955,9371900,35516,-17613,1570.244,1385.973,2.865,2.8489999999999998
66722,1352853446.994,9371900,35466,-17599,1561.279,1333.649,2.965,2.9139999999999997
66738,1352853447.0310001,9371900,35441,-17603,1551.767,1252.9569999999999,3.056,3.016
66754,1352853447.068,9371900,35399,-17607,1586.384,1285.255,3.0660000000000003,3.025
66770,1352853447.1039999,9371900,35358,-17607,1611.703,1239.96,3.075,3.0460000000000003
66786,1352853447.1430001,9371900,35287,-17599,1598.1729999999998,1265.813,-3.116,3.0669999999999997
66802,1352853447.182,9371900,35238,-17600,1597.5,1250.769,-3.133,3.14
66818,1352853447.2189999,9371900,35181,-17598,1595.514,1254.112,3.0869999999999997,3.083
66834,1352853447.255,9371900,35141,-17614,1584.255,1167.374,3.133,3.085
66850,1352853447.293,9371900,35095,-17640,1572.631,1142.407,-3.052,-3.076
66866,1352853447.328,9371900,35024,-17660,1584.172,1238.329,-3.0180000000000002,-3.0580000000000003
66882,1352853447.363,9371900,34973,-17672,1591.0220000000002,1286.971,-3.022,-3.0580000000000003
66898,1352853447.4,9371900,34889,-17678,1615.815,1403.009,-3.0260000000000002,-2.9939999999999998
66914,1352853447.436,9371900,34838,-17681,1612.4660000000001,1315.954,-3.0460000000000003,-3.003
66930,1352853447.472,9371900,34782,-17687,1608.969,1319.896,-3.01,-3.056
66946,1352853447.512,9371900,34698,-17672,1609.114,1373.335,3.134,-3.11
66962,1352853447.548,9371900,34658,-17667,1607.971,1347.9489999999998,3.135,3.1319999999999997
66978,1352853447.587,9371900,34667,-17637,1592.405,1247.0919999999999,3.05,3.076
66994,1352853447.622,9371900,34666,-17616,1576.734,1115.281,3.088,3.053
67010,1352853447.66,9371900,34615,-17622,1582.4170000000001,1170.657,3.054,3.042
67026,1352853447.696,9371900,34566,-17594,1577.0739999999998,1180.984,2.908,2.9530000000000003
67042,1352853447.7319999,9371900,34522,-17552,1601.658,1212.9489999999998,2.826,2.875
67058,1352853447.767,9371900,34477,-17528,1584.059,1215.67,2.823,2.855
67074,1352853447.804,9371900,34445,-17516,1571.7979999999998,1198.47,2.798,2.853
